##NAMES=Graphite
##RRUFFID=R050503
##IDEAL CHEMISTRY=C
##LOCALITY=Sterling mine, Ogdensburg, New Jersey, USA
##OWNER=RRUFF
##SOURCE=Marcus Origlieri
##DESCRIPTION=Black hexagonal platy crystals
##STATUS=The identification of this mineral has been confirmed by X-ray diffraction.
##URL=rruff.info/R050503
399.1926, 9.4774127E-02
401.1211, 9.3178488E-02
403.0496, 9.3626447E-02
404.9780, 9.2781648E-02
406.9065, 9.3475617E-02
408.8350, 9.4903551E-02
410.7634, 9.7723991E-02
412.6919, 9.8229349E-02
414.6204, 9.3612880E-02
416.5488, 9.1206610E-02
418.4773, 9.1737509E-02
420.4058, 8.9036517E-02
422.3342, 8.8900067E-02
424.2627, 9.2909537E-02
426.1912, 9.4084717E-02
428.1196, 9.2465878E-02
430.0481, 9.2304781E-02
431.9766, 9.3239278E-02
433.9050, 9.4272867E-02
435.8335, 9.4711937E-02
437.7620, 9.5669366E-02
439.6904, 9.4768777E-02
441.6189, 9.4881982E-02
443.5474, 9.5294423E-02
445.4758, 9.3828328E-02
447.4043, 9.2601329E-02
449.3328, 9.2395350E-02
451.2612, 9.3144752E-02
453.1897, 9.4050527E-02
455.1182, 9.5163971E-02
457.0466, 9.5145583E-02
458.9751, 9.4508827E-02
460.9036, 9.5151618E-02
462.8320, 9.6377470E-02
464.7605, 9.7656853E-02
466.6890, 9.8593868E-02
468.6174, 9.7927727E-02
470.5459, 9.8946467E-02
472.4744, 9.9700958E-02
474.4028, 9.9124938E-02
476.3313, 9.9279672E-02
478.2598, 9.9711522E-02
480.1882, 9.9461377E-02
482.1167, 9.9296853E-02
484.0452, 9.9930137E-02
485.9736, 0.1011025
487.9021, 0.1014556
489.8306, 0.1018671
491.7590, 0.1025545
493.6875, 0.1031162
495.6160, 0.1037197
497.5444, 0.1032717
499.4729, 0.1024366
501.4014, 0.1019967
503.3298, 0.1029263
505.2583, 0.1036488
507.1868, 0.1034748
509.1152, 0.1030153
511.0437, 0.1033288
512.9722, 0.1043680
514.9006, 0.1043476
516.8291, 0.1046079
518.7576, 0.1052733
520.6860, 0.1063196
522.6145, 0.1064287
524.5430, 0.1056371
526.4714, 0.1065214
528.3999, 0.1068495
530.3284, 0.1069312
532.2568, 0.1083674
534.1853, 0.1092368
536.1138, 0.1100158
538.0422, 0.1109385
539.9707, 0.1110713
541.8992, 0.1117623
543.8276, 0.1135682
545.7561, 0.1150358
547.6846, 0.1159147
549.6130, 0.1168049
551.5415, 0.1179747
553.4700, 0.1189599
555.3984, 0.1186995
557.3269, 0.1185279
559.2554, 0.1187278
561.1838, 0.1181500
563.1123, 0.1174908
565.0408, 0.1166663
566.9692, 0.1153769
568.8977, 0.1141579
570.8262, 0.1139881
572.7546, 0.1140313
574.6831, 0.1139942
576.6116, 0.1141918
578.5400, 0.1146582
580.4685, 0.1155620
582.3970, 0.1156684
584.3254, 0.1154927
586.2539, 0.1150646
588.1824, 0.1146383
590.1108, 0.1149692
592.0393, 0.1152252
593.9678, 0.1156413
595.8962, 0.1162371
597.8247, 0.1161653
599.7532, 0.1159024
601.6816, 0.1161808
603.6101, 0.1164519
605.5386, 0.1165419
607.4670, 0.1168450
609.3955, 0.1168409
611.3240, 0.1169663
613.2524, 0.1170767
615.1809, 0.1172965
617.1094, 0.1178491
619.0378, 0.1183654
620.9663, 0.1187036
622.8948, 0.1192485
624.8232, 0.1196930
626.7517, 0.1197007
628.6802, 0.1194757
630.6086, 0.1195432
632.5371, 0.1203337
634.4656, 0.1211290
636.3940, 0.1211262
638.3225, 0.1208700
640.2510, 0.1207119
642.1794, 0.1215412
644.1079, 0.1217384
646.0364, 0.1214907
647.9648, 0.1223736
649.8933, 0.1227618
651.8218, 0.1222383
653.7502, 0.1222067
655.6787, 0.1230728
657.6072, 0.1236642
659.5356, 0.1240286
661.4641, 0.1241896
663.3926, 0.1245483
665.3210, 0.1249436
667.2495, 0.1249666
669.1780, 0.1254005
671.1064, 0.1257760
673.0349, 0.1258600
674.9634, 0.1260942
676.8918, 0.1267206
678.8203, 0.1271325
680.7488, 0.1272518
682.6772, 0.1271309
684.6057, 0.1269841
686.5342, 0.1274489
688.4626, 0.1284009
690.3911, 0.1289177
692.3196, 0.1289025
694.2480, 0.1293866
696.1765, 0.1303923
698.1050, 0.1309444
700.0334, 0.1312704
701.9619, 0.1317425
703.8904, 0.1322486
705.8188, 0.1326826
707.7473, 0.1328501
709.6758, 0.1323837
711.6042, 0.1324029
713.5327, 0.1326567
715.4612, 0.1328851
717.3896, 0.1329941
719.3181, 0.1329674
721.2466, 0.1333468
723.1750, 0.1339896
725.1035, 0.1342514
727.0320, 0.1344936
728.9604, 0.1346175
730.8889, 0.1349041
732.8174, 0.1352044
734.7458, 0.1355701
736.6743, 0.1359401
738.6028, 0.1359467
740.5313, 0.1361255
742.4597, 0.1366235
744.3882, 0.1368673
746.3167, 0.1376750
748.2451, 0.1385548
750.1736, 0.1391501
752.1021, 0.1396177
754.0305, 0.1406171
755.9590, 0.1415680
757.8875, 0.1422987
759.8159, 0.1427362
761.7444, 0.1429204
763.6729, 0.1432014
765.6013, 0.1436308
767.5298, 0.1439651
769.4583, 0.1443451
771.3867, 0.1443461
773.3152, 0.1439088
775.2437, 0.1436766
777.1721, 0.1436989
779.1006, 0.1434180
781.0291, 0.1433752
782.9575, 0.1434659
784.8860, 0.1435995
786.8145, 0.1434060
788.7429, 0.1436754
790.6714, 0.1440636
792.5999, 0.1441388
794.5283, 0.1445606
796.4568, 0.1449314
798.3853, 0.1450592
800.3137, 0.1458367
802.2422, 0.1468744
804.1707, 0.1481006
806.0991, 0.1490562
808.0276, 0.1501587
809.9561, 0.1515309
811.8845, 0.1529580
813.8130, 0.1535538
815.7415, 0.1537722
817.6699, 0.1540733
819.5984, 0.1544195
821.5269, 0.1552281
823.4553, 0.1561245
825.3838, 0.1570424
827.3123, 0.1579450
829.2407, 0.1583080
831.1692, 0.1581804
833.0977, 0.1575758
835.0261, 0.1568824
836.9546, 0.1560436
838.8831, 0.1550483
840.8115, 0.1543787
842.7400, 0.1544509
844.6685, 0.1544667
846.5969, 0.1540286
848.5254, 0.1535663
850.4539, 0.1531353
852.3823, 0.1526087
854.3108, 0.1522668
856.2393, 0.1521300
858.1677, 0.1520702
860.0962, 0.1520732
862.0247, 0.1523876
863.9531, 0.1525415
865.8816, 0.1527103
867.8101, 0.1543925
869.7385, 0.1563782
871.6670, 0.1556170
873.5955, 0.1548715
875.5239, 0.1553600
877.4524, 0.1561245
879.3809, 0.1566408
881.3093, 0.1574874
883.2378, 0.1585482
885.1663, 0.1593204
887.0947, 0.1595487
889.0232, 0.1592492
890.9517, 0.1586945
892.8801, 0.1582891
894.8085, 0.1580730
896.7370, 0.1574732
898.6655, 0.1567291
900.5939, 0.1567856
902.5224, 0.1573058
904.4509, 0.1575602
906.3793, 0.1578118
908.3078, 0.1581510
910.2363, 0.1584386
912.1647, 0.1586386
914.0932, 0.1589692
916.0217, 0.1592219
917.9501, 0.1596586
919.8786, 0.1601302
921.8071, 0.1604415
923.7355, 0.1603630
925.6640, 0.1604439
927.5925, 0.1608879
929.5209, 0.1614701
931.4494, 0.1619318
933.3779, 0.1622678
935.3063, 0.1626927
937.2348, 0.1629593
939.1633, 0.1631470
941.0917, 0.1634924
943.0202, 0.1638744
944.9487, 0.1641988
946.8771, 0.1642802
948.8056, 0.1640389
950.7341, 0.1642269
952.6625, 0.1647381
954.5910, 0.1650368
956.5195, 0.1654389
958.4479, 0.1657713
960.3764, 0.1662024
962.3049, 0.1667440
964.2333, 0.1670067
966.1618, 0.1673560
968.0903, 0.1675561
970.0187, 0.1677758
971.9472, 0.1683724
973.8757, 0.1688199
975.8041, 0.1686519
977.7326, 0.1687463
979.6611, 0.1695452
981.5895, 0.1703550
983.5180, 0.1706058
985.4465, 0.1711316
987.3749, 0.1720189
989.3034, 0.1725830
991.2319, 0.1732135
993.1603, 0.1739394
995.0888, 0.1745035
997.0173, 0.1751799
998.9457, 0.1762676
1000.874, 0.1780765
1002.803, 0.1801185
1004.731, 0.1815015
1006.660, 0.1820786
1008.588, 0.1826787
1010.517, 0.1843678
1012.445, 0.1871065
1014.373, 0.1882252
1016.302, 0.1855262
1018.230, 0.1814163
1020.159, 0.1784730
1022.087, 0.1769727
1024.016, 0.1760169
1025.944, 0.1755567
1027.873, 0.1757145
1029.801, 0.1760581
1031.730, 0.1763300
1033.658, 0.1766269
1035.587, 0.1770261
1037.515, 0.1772237
1039.444, 0.1774560
1041.372, 0.1777558
1043.301, 0.1779696
1045.229, 0.1786188
1047.157, 0.1789556
1049.086, 0.1790782
1051.014, 0.1795461
1052.943, 0.1802421
1054.871, 0.1806734
1056.800, 0.1811454
1058.728, 0.1817083
1060.657, 0.1822969
1062.585, 0.1827157
1064.514, 0.1831006
1066.442, 0.1837773
1068.371, 0.1844519
1070.299, 0.1852810
1072.228, 0.1866953
1074.156, 0.1884844
1076.084, 0.1910442
1078.013, 0.1938944
1079.941, 0.1948307
1081.870, 0.1930414
1083.798, 0.1904272
1085.727, 0.1883184
1087.655, 0.1873944
1089.584, 0.1869618
1091.512, 0.1867972
1093.441, 0.1875574
1095.369, 0.1887296
1097.298, 0.1900085
1099.226, 0.1909886
1101.155, 0.1918364
1103.083, 0.1925029
1105.011, 0.1924203
1106.940, 0.1922521
1108.868, 0.1925000
1110.797, 0.1927592
1112.725, 0.1926173
1114.654, 0.1925457
1116.582, 0.1928156
1118.511, 0.1932296
1120.439, 0.1939402
1122.368, 0.1946874
1124.296, 0.1951204
1126.225, 0.1957350
1128.153, 0.1967786
1130.082, 0.1978530
1132.010, 0.1988624
1133.938, 0.2005113
1135.867, 0.2020438
1137.795, 0.2033823
1139.724, 0.2046969
1141.652, 0.2061810
1143.581, 0.2079042
1145.509, 0.2095702
1147.438, 0.2114296
1149.366, 0.2134390
1151.295, 0.2150491
1153.223, 0.2160379
1155.152, 0.2170351
1157.080, 0.2178850
1159.009, 0.2180851
1160.937, 0.2171216
1162.865, 0.2154133
1164.794, 0.2130041
1166.722, 0.2102837
1168.651, 0.2076529
1170.579, 0.2058893
1172.508, 0.2057160
1174.436, 0.2073488
1176.365, 0.2097660
1178.293, 0.2121529
1180.222, 0.2146326
1182.150, 0.2171662
1184.079, 0.2195538
1186.007, 0.2208807
1187.936, 0.2209025
1189.864, 0.2203957
1191.792, 0.2195315
1193.721, 0.2185816
1195.649, 0.2172911
1197.578, 0.2155383
1199.506, 0.2138259
1201.435, 0.2122733
1203.363, 0.2107495
1205.292, 0.2097140
1207.220, 0.2101643
1209.149, 0.2115103
1211.077, 0.2136564
1213.006, 0.2162104
1214.934, 0.2182663
1216.863, 0.2194154
1218.791, 0.2200449
1220.719, 0.2202258
1222.648, 0.2201839
1224.576, 0.2200757
1226.505, 0.2200168
1228.433, 0.2197831
1230.362, 0.2197297
1232.290, 0.2193503
1234.219, 0.2185679
1236.147, 0.2179429
1238.076, 0.2176811
1240.004, 0.2175187
1241.933, 0.2170672
1243.861, 0.2167105
1245.790, 0.2162039
1247.718, 0.2155501
1249.646, 0.2145650
1251.575, 0.2136168
1253.503, 0.2125064
1255.432, 0.2112002
1257.360, 0.2099895
1259.289, 0.2090103
1261.217, 0.2081763
1263.146, 0.2075016
1265.074, 0.2070966
1267.003, 0.2067935
1268.931, 0.2065323
1270.860, 0.2060705
1272.788, 0.2061060
1274.717, 0.2062405
1276.645, 0.2063903
1278.573, 0.2065086
1280.502, 0.2067223
1282.430, 0.2070667
1284.359, 0.2075952
1286.287, 0.2080193
1288.216, 0.2085470
1290.144, 0.2089992
1292.073, 0.2090394
1294.001, 0.2088569
1295.930, 0.2090179
1297.858, 0.2090621
1299.787, 0.2086367
1301.715, 0.2086220
1303.644, 0.2088864
1305.572, 0.2094318
1307.500, 0.2097379
1309.429, 0.2098743
1311.357, 0.2100020
1313.286, 0.2100258
1315.214, 0.2099338
1317.143, 0.2096540
1319.071, 0.2098821
1321.000, 0.2103497
1322.928, 0.2104636
1324.857, 0.2106301
1326.785, 0.2109475
1328.714, 0.2111991
1330.642, 0.2115179
1332.571, 0.2120351
1334.499, 0.2121128
1336.427, 0.2123234
1338.356, 0.2124574
1340.284, 0.2128817
1342.213, 0.2132938
1344.141, 0.2135431
1346.070, 0.2137640
1347.998, 0.2138151
1349.927, 0.2138838
1351.855, 0.2141474
1353.784, 0.2146211
1355.712, 0.2151278
1357.641, 0.2156442
1359.569, 0.2162743
1361.498, 0.2171177
1363.426, 0.2178386
1365.354, 0.2177777
1367.283, 0.2173798
1369.211, 0.2173898
1371.140, 0.2173025
1373.068, 0.2171162
1374.997, 0.2176144
1376.925, 0.2179013
1378.854, 0.2182402
1380.782, 0.2188043
1382.711, 0.2193704
1384.639, 0.2200778
1386.568, 0.2205772
1388.496, 0.2207695
1390.424, 0.2206619
1392.353, 0.2206881
1394.281, 0.2209973
1396.210, 0.2215575
1398.138, 0.2217525
1400.067, 0.2218862
1401.995, 0.2225254
1403.924, 0.2230378
1405.852, 0.2236119
1407.781, 0.2241722
1409.709, 0.2242665
1411.638, 0.2242452
1413.566, 0.2243198
1415.495, 0.2242524
1417.423, 0.2240283
1419.351, 0.2239749
1421.280, 0.2240427
1423.208, 0.2243438
1425.137, 0.2249534
1427.065, 0.2254688
1428.994, 0.2257809
1430.922, 0.2258563
1432.851, 0.2262195
1434.779, 0.2264941
1436.708, 0.2267826
1438.636, 0.2269375
1440.565, 0.2269543
1442.493, 0.2275425
1444.422, 0.2281670
1446.350, 0.2285784
1448.278, 0.2288389
1450.207, 0.2289858
1452.135, 0.2291807
1454.064, 0.2292202
1455.992, 0.2293957
1457.921, 0.2295595
1459.849, 0.2298009
1461.778, 0.2302647
1463.706, 0.2308760
1465.635, 0.2309615
1467.563, 0.2309678
1469.492, 0.2313630
1471.420, 0.2317808
1473.349, 0.2322206
1475.277, 0.2326458
1477.205, 0.2329084
1479.134, 0.2329804
1481.062, 0.2333031
1482.991, 0.2336664
1484.919, 0.2341962
1486.848, 0.2352434
1488.776, 0.2362455
1490.705, 0.2367373
1492.633, 0.2379686
1494.562, 0.2392071
1496.490, 0.2405172
1498.419, 0.2418399
1500.347, 0.2433892
1502.276, 0.2448626
1504.204, 0.2452253
1506.132, 0.2447004
1508.061, 0.2436423
1509.989, 0.2418970
1511.918, 0.2400883
1513.846, 0.2388978
1515.775, 0.2384354
1517.703, 0.2383428
1519.632, 0.2381933
1521.560, 0.2380260
1523.489, 0.2379993
1525.417, 0.2380518
1527.346, 0.2383672
1529.274, 0.2383726
1531.203, 0.2385966
1533.131, 0.2390976
1535.059, 0.2392288
1536.988, 0.2393161
1538.916, 0.2394654
1540.845, 0.2395309
1542.773, 0.2396886
1544.702, 0.2395820
1546.630, 0.2398409
1548.559, 0.2405778
1550.487, 0.2407812
1552.416, 0.2404676
1554.344, 0.2407873
1556.273, 0.2411220
1558.201, 0.2416068
1560.130, 0.2415563
1562.058, 0.2413582
1563.986, 0.2416187
1565.915, 0.2418328
1567.843, 0.2419786
1569.772, 0.2423276
1571.700, 0.2423709
1573.629, 0.2421859
1575.557, 0.2427072
1577.486, 0.2433688
1579.414, 0.2435818
1581.343, 0.2434916
1583.271, 0.2433465
1585.200, 0.2431086
1587.128, 0.2430333
1589.057, 0.2437602
1590.985, 0.2445067
1592.913, 0.2454753
1594.842, 0.2464843
1596.770, 0.2471149
1598.699, 0.2473452
1600.627, 0.2472376
1602.556, 0.2472468
1604.484, 0.2478292
1606.413, 0.2479142
1608.341, 0.2476488
1610.270, 0.2479665
1612.198, 0.2484631
1614.127, 0.2490428
1616.055, 0.2496650
1617.984, 0.2496568
1619.912, 0.2495294
1621.840, 0.2499155
1623.769, 0.2500636
1625.697, 0.2500124
1627.626, 0.2500621
1629.554, 0.2504307
1631.483, 0.2511468
1633.411, 0.2519565
1635.340, 0.2519754
1637.268, 0.2516381
1639.197, 0.2520019
1641.125, 0.2524524
1643.054, 0.2528329
1644.982, 0.2535842
1646.911, 0.2539654
1648.839, 0.2537991
1650.767, 0.2540364
1652.696, 0.2546357
1654.624, 0.2549774
1656.553, 0.2547562
1658.481, 0.2545742
1660.410, 0.2546884
1662.338, 0.2549906
1664.267, 0.2556657
1666.195, 0.2562343
1668.124, 0.2564061
1670.052, 0.2562796
1671.981, 0.2561349
1673.909, 0.2565793
1675.838, 0.2567123
1677.766, 0.2564318
1679.694, 0.2566971
1681.623, 0.2573840
1683.551, 0.2580463
1685.480, 0.2583366
1687.408, 0.2583400
1689.337, 0.2582825
1691.265, 0.2582763
1693.194, 0.2584594
1695.122, 0.2585911
1697.051, 0.2590426
1698.979, 0.2597232
1700.908, 0.2600045
1702.836, 0.2599346
1704.765, 0.2598952
1706.693, 0.2599103
1708.621, 0.2601123
1710.550, 0.2602932
1712.478, 0.2610749
1714.407, 0.2615535
1716.335, 0.2611455
1718.264, 0.2611175
1720.192, 0.2617425
1722.121, 0.2624099
1724.049, 0.2623966
1725.978, 0.2625399
1727.906, 0.2625116
1729.835, 0.2625784
1731.763, 0.2630702
1733.692, 0.2631712
1735.620, 0.2629537
1737.548, 0.2627627
1739.477, 0.2631703
1741.405, 0.2633999
1743.334, 0.2632544
1745.262, 0.2631432
1747.191, 0.2635820
1749.119, 0.2644688
1751.048, 0.2653625
1752.976, 0.2663158
1754.905, 0.2675964
1756.833, 0.2691238
1758.762, 0.2701513
1760.690, 0.2723397
1762.619, 0.2752352
1764.547, 0.2773086
1766.475, 0.2789169
1768.404, 0.2799066
1770.332, 0.2802301
1772.261, 0.2802218
1774.189, 0.2794759
1776.118, 0.2784887
1778.046, 0.2773706
1779.975, 0.2769084
1781.903, 0.2766268
1783.832, 0.2757134
1785.760, 0.2746489
1787.689, 0.2737150
1789.617, 0.2733383
1791.546, 0.2733566
1793.474, 0.2729469
1795.402, 0.2721159
1797.331, 0.2714051
1799.259, 0.2712253
1801.188, 0.2712293
1803.116, 0.2713555
1805.045, 0.2713902
1806.973, 0.2711152
1808.902, 0.2711675
1810.830, 0.2715353
1812.759, 0.2714143
1814.687, 0.2718576
1816.616, 0.2720836
1818.544, 0.2718320
1820.473, 0.2722287
1822.401, 0.2727419
1824.329, 0.2729920
1826.258, 0.2723404
1828.186, 0.2724710
1830.115, 0.2739701
1832.043, 0.2743399
1833.972, 0.2738727
1835.900, 0.2734654
1837.829, 0.2735177
1839.757, 0.2745211
1841.686, 0.2749988
1843.614, 0.2748038
1845.543, 0.2749253
1847.471, 0.2755941
1849.400, 0.2754748
1851.328, 0.2753842
1853.256, 0.2760232
1855.185, 0.2763596
1857.113, 0.2774247
1859.042, 0.2777131
1860.970, 0.2770091
1862.899, 0.2768430
1864.827, 0.2771173
1866.756, 0.2775525
1868.684, 0.2776640
1870.613, 0.2778880
1872.541, 0.2784824
1874.470, 0.2785689
1876.398, 0.2787968
1878.327, 0.2798636
1880.255, 0.2805441
1882.183, 0.2805673
1884.112, 0.2803656
1886.040, 0.2806379
1887.969, 0.2803618
1889.897, 0.2810436
1891.826, 0.2816710
1893.754, 0.2814102
1895.683, 0.2806117
1897.611, 0.2801745
1899.540, 0.2805241
1901.468, 0.2804087
1903.397, 0.2816244
1905.325, 0.2826739
1907.254, 0.2816252
1909.182, 0.2809989
1911.110, 0.2815874
1913.039, 0.2825259
1914.967, 0.2816245
1916.896, 0.2803742
1918.824, 0.2820917
1920.753, 0.2822566
1922.681, 0.2810638
1924.610, 0.2819880
1926.538, 0.2823695
1928.467, 0.2814606
1930.395, 0.2813568
1932.324, 0.2825190
1934.252, 0.2832971
1936.181, 0.2833937
1938.109, 0.2838539
1940.037, 0.2825933
1941.966, 0.2808338
1943.894, 0.2820343
1945.823, 0.2832665
1947.751, 0.2836745
1949.680, 0.2831708
1951.608, 0.2822015
1953.537, 0.2816214
1955.465, 0.2834918
1957.394, 0.2816215
1959.322, 0.2799913
1961.251, 0.2815989
1963.179, 0.2802493
1965.108, 0.2813461
1967.036, 0.2833725
1968.964, 0.2821285
1970.893, 0.2837063
1972.821, 0.2832904
1974.750, 0.2805200
1976.678, 0.2798193
1978.607, 0.2834435
1980.535, 0.2871158
1982.464, 0.2864766
1984.392, 0.2868352
1986.321, 0.2869718
1988.249, 0.2852832
1990.178, 0.2853826
1992.106, 0.2860356
1994.035, 0.2857990
1995.963, 0.2859026
1997.891, 0.2877960
1999.820, 0.2900539
2001.748, 0.2879347
2003.677, 0.2857158
2005.605, 0.2846510
2007.534, 0.2872230
2009.462, 0.2897826
2011.391, 0.2896419
2013.319, 0.2879975
2015.248, 0.2879865
2017.176, 0.2894741
2019.105, 0.2896613
2021.033, 0.2867112
2022.962, 0.2865613
2024.890, 0.2862621
2026.818, 0.2878370
2028.747, 0.2909001
2030.675, 0.2900915
2032.604, 0.2908382
2034.532, 0.2909459
2036.461, 0.2907901
2038.389, 0.2905084
2040.318, 0.2903778
2042.246, 0.2921843
2044.175, 0.2945587
2046.103, 0.2971057
2048.032, 0.2982480
2049.960, 0.2981322
2051.889, 0.2973939
2053.817, 0.2976261
2055.746, 0.2998424
2057.674, 0.3007884
2059.603, 0.2995748
2061.531, 0.2981775
2063.459, 0.2999697
2065.388, 0.2998318
2067.316, 0.2995073
2069.245, 0.3014011
2071.173, 0.3023724
2073.102, 0.3020320
2075.030, 0.3025852
2076.959, 0.3024387
2078.887, 0.3027036
2080.816, 0.3033201
2082.744, 0.3046584
2084.673, 0.3070817
2086.601, 0.3079841
2088.530, 0.3080546
2090.458, 0.3070867
2092.386, 0.3053860
2094.315, 0.3057504
2096.243, 0.3074055
2098.172, 0.3072506
2100.100, 0.3070045
2102.029, 0.3061674
2103.957, 0.3066999
2105.886, 0.3074761
2107.814, 0.3085569
2109.743, 0.3087778
2111.671, 0.3083764
2113.600, 0.3096007
2115.528, 0.3101484
2117.457, 0.3103693
2119.385, 0.3111338
2121.313, 0.3112742
2123.242, 0.3102837
2125.170, 0.3093945
2127.099, 0.3093130
2129.027, 0.3088267
2130.956, 0.3072929
2132.884, 0.3088762
2134.813, 0.3110268
2136.741, 0.3086783
2138.670, 0.3076895
2140.598, 0.3084388
2142.527, 0.3076378
2144.455, 0.3082202
2146.384, 0.3108816
2148.312, 0.3096655
2150.240, 0.3045249
2152.169, 0.3036984
2154.097, 0.3054734
2156.026, 0.3064570
2157.954, 0.3064710
2159.883, 0.3054656
2161.811, 0.3083387
2163.740, 0.3104582
2165.668, 0.3093686
2167.597, 0.3101620
2169.525, 0.3101895
2171.454, 0.3099876
2173.382, 0.3081748
2175.311, 0.3078052
2177.239, 0.3100217
2179.167, 0.3134392
2181.096, 0.3126705
2183.024, 0.3095431
2184.953, 0.3082720
2186.881, 0.3102432
2188.810, 0.3146446
2190.738, 0.3170938
2192.667, 0.3171733
2194.595, 0.3166337
2196.524, 0.3149894
2198.452, 0.3175952
2200.381, 0.3203402
2202.309, 0.3176141
2204.238, 0.3152059
2206.166, 0.3174592
2208.094, 0.3208145
2210.023, 0.3202048
2211.951, 0.3207844
2213.880, 0.3230299
2215.808, 0.3220367
2217.737, 0.3210672
2219.665, 0.3222106
2221.594, 0.3218016
2223.522, 0.3211924
2225.451, 0.3211218
2227.379, 0.3233093
2229.308, 0.3249035
2231.236, 0.3257771
2233.165, 0.3266603
2235.093, 0.3285598
2237.021, 0.3267326
2238.950, 0.3278710
2240.878, 0.3282278
2242.807, 0.3251649
2244.735, 0.3243975
2246.664, 0.3270598
2248.592, 0.3283589
2250.521, 0.3277762
2252.449, 0.3278680
2254.378, 0.3283350
2256.306, 0.3292742
2258.235, 0.3300797
2260.163, 0.3306489
2262.092, 0.3307088
2264.020, 0.3307056
2265.948, 0.3320078
2267.877, 0.3331188
2269.805, 0.3327938
2271.734, 0.3333284
2273.662, 0.3341568
2275.591, 0.3337043
2277.519, 0.3332567
2279.448, 0.3342673
2281.376, 0.3360061
2283.305, 0.3373772
2285.233, 0.3381417
2287.162, 0.3379068
2289.090, 0.3388098
2291.019, 0.3394360
2292.947, 0.3394513
2294.875, 0.3387589
2296.804, 0.3387305
2298.732, 0.3391740
2300.661, 0.3393773
2302.589, 0.3400297
2304.518, 0.3406845
2306.446, 0.3413602
2308.375, 0.3427444
2310.303, 0.3424833
2312.232, 0.3431778
2314.160, 0.3443388
2316.089, 0.3439966
2318.017, 0.3443569
2319.946, 0.3450470
2321.874, 0.3456004
2323.802, 0.3455225
2325.731, 0.3448972
2327.659, 0.3457646
2329.588, 0.3459413
2331.516, 0.3463449
2333.445, 0.3473367
2335.373, 0.3476761
2337.302, 0.3472016
2339.230, 0.3474772
2341.159, 0.3475541
2343.087, 0.3475178
2345.016, 0.3479881
2346.944, 0.3486487
2348.873, 0.3489341
2350.801, 0.3489517
2352.729, 0.3489998
2354.658, 0.3490456
2356.586, 0.3485798
2358.515, 0.3491628
2360.443, 0.3494715
2362.372, 0.3492070
2364.300, 0.3488798
2366.229, 0.3499957
2368.157, 0.3510654
2370.086, 0.3510662
2372.014, 0.3512551
2373.942, 0.3511513
2375.871, 0.3507246
2377.799, 0.3513726
2379.728, 0.3524949
2381.656, 0.3532915
2383.585, 0.3532735
2385.513, 0.3529129
2387.442, 0.3528278
2389.370, 0.3530157
2391.299, 0.3533251
2393.227, 0.3535342
2395.156, 0.3539722
2397.084, 0.3546861
2399.012, 0.3544875
2400.941, 0.3547693
2402.869, 0.3553801
2404.798, 0.3560564
2406.726, 0.3560421
2408.655, 0.3561701
2410.583, 0.3560541
2412.512, 0.3558428
2414.440, 0.3572321
2416.369, 0.3582803
2418.297, 0.3579412
2420.226, 0.3579029
2422.154, 0.3587117
2424.083, 0.3571939
2426.011, 0.3559637
2427.939, 0.3569433
2429.868, 0.3584872
2431.796, 0.3590192
2433.725, 0.3602378
2435.653, 0.3605230
2437.582, 0.3600539
2439.510, 0.3605229
2441.439, 0.3605932
2443.367, 0.3608020
2445.296, 0.3613670
2447.224, 0.3610683
2449.153, 0.3604684
2451.081, 0.3616788
2453.010, 0.3617786
2454.938, 0.3619660
2456.866, 0.3644420
2458.795, 0.3647549
2460.723, 0.3632739
2462.652, 0.3642961
2464.580, 0.3657285
2466.509, 0.3652719
2468.437, 0.3658810
2470.366, 0.3665175
2472.294, 0.3656896
2474.223, 0.3642772
2476.151, 0.3650270
2478.080, 0.3655991
2480.008, 0.3667497
2481.937, 0.3669979
2483.865, 0.3665377
2485.793, 0.3659328
2487.722, 0.3670989
2489.650, 0.3673713
2491.579, 0.3670368
2493.507, 0.3684793
2495.436, 0.3694027
2497.364, 0.3696065
2499.293, 0.3684726
2501.221, 0.3685346
2503.150, 0.3695542
2505.078, 0.3687353
2507.007, 0.3694384
2508.935, 0.3720588
2510.864, 0.3723393
2512.792, 0.3725983
2514.720, 0.3722066
2516.649, 0.3719081
2518.577, 0.3710588
2520.506, 0.3704800
2522.434, 0.3714997
2524.363, 0.3718909
2526.291, 0.3716150
2528.220, 0.3720430
2530.148, 0.3722353
2532.077, 0.3721575
2534.005, 0.3734266
2535.934, 0.3745500
2537.862, 0.3761637
2539.791, 0.3772654
2541.719, 0.3768661
2543.647, 0.3749540
2545.576, 0.3748220
2547.504, 0.3767978
2549.433, 0.3786893
2551.361, 0.3786778
2553.290, 0.3767763
2555.218, 0.3771335
2557.147, 0.3784166
2559.075, 0.3792944
2561.004, 0.3790803
2562.932, 0.3791807
2564.861, 0.3791016
2566.789, 0.3794192
2568.718, 0.3793831
2570.646, 0.3793179
2572.574, 0.3798076
2574.503, 0.3812961
2576.431, 0.3809632
2578.360, 0.3803285
2580.288, 0.3813156
2582.217, 0.3813986
2584.145, 0.3831213
2586.074, 0.3837966
2588.002, 0.3835922
2589.931, 0.3830478
2591.859, 0.3835316
2593.788, 0.3837996
2595.716, 0.3841071
2597.645, 0.3832857
2599.573, 0.3836592
2601.501, 0.3853515
2603.430, 0.3855540
2605.358, 0.3850413
2607.287, 0.3855958
2609.215, 0.3868503
2611.144, 0.3874791
2613.072, 0.3879773
2615.001, 0.3885201
2616.929, 0.3885910
2618.858, 0.3903071
2620.786, 0.3919937
2622.715, 0.3909819
2624.643, 0.3899442
2626.572, 0.3912469
2628.500, 0.3908560
2630.428, 0.3900803
2632.357, 0.3911423
2634.285, 0.3922892
2636.214, 0.3928649
2638.142, 0.3934704
2640.071, 0.3935572
2641.999, 0.3934081
2643.928, 0.3938642
2645.856, 0.3939174
2647.785, 0.3945705
2649.713, 0.3952695
2651.642, 0.3954305
2653.570, 0.3948072
2655.499, 0.3951839
2657.427, 0.3962352
2659.355, 0.3966770
2661.284, 0.3963489
2663.212, 0.3960548
2665.141, 0.3961209
2667.069, 0.3959573
2668.998, 0.3965677
2670.926, 0.3976333
2672.855, 0.3974079
2674.783, 0.3972979
2676.712, 0.3974125
2678.640, 0.3982043
2680.569, 0.3984713
2682.497, 0.3978425
2684.426, 0.3989565
2686.354, 0.4002205
2688.282, 0.4005696
2690.211, 0.4010076
2692.139, 0.4011737
2694.068, 0.4006168
2695.996, 0.4010256
2697.925, 0.4013382
2699.853, 0.4020629
2701.782, 0.4019730
2703.710, 0.4017132
2705.639, 0.4022838
2707.567, 0.4023636
2709.496, 0.4024571
2711.424, 0.4022120
2713.353, 0.4023321
2715.281, 0.4037878
2717.209, 0.4039230
2719.138, 0.4034320
2721.066, 0.4048289
2722.995, 0.4058554
2724.923, 0.4057703
2726.852, 0.4060837
2728.780, 0.4061109
2730.709, 0.4058255
2732.637, 0.4060350
2734.566, 0.4056792
2736.494, 0.4056593
2738.423, 0.4062586
2740.351, 0.4065344
2742.280, 0.4070828
2744.208, 0.4073540
2746.136, 0.4075089
2748.065, 0.4076825
2749.993, 0.4082579
2751.922, 0.4093721
2753.850, 0.4103715
2755.779, 0.4096906
2757.707, 0.4086819
2759.636, 0.4092003
2761.564, 0.4092199
2763.493, 0.4095764
2765.421, 0.4106443
2767.350, 0.4120290
2769.278, 0.4130523
2771.207, 0.4128708
2773.135, 0.4126103
2775.063, 0.4118412
2776.992, 0.4116914
2778.920, 0.4129278
2780.849, 0.4129696
2782.777, 0.4124212
2784.706, 0.4131883
2786.634, 0.4145674
2788.563, 0.4145013
2790.491, 0.4141056
2792.420, 0.4145324
2794.348, 0.4153962
2796.277, 0.4147084
2798.205, 0.4156950
2800.134, 0.4165997
2802.062, 0.4175714
2803.990, 0.4174340
2805.919, 0.4165166
2807.847, 0.4176731
2809.776, 0.4184530
2811.704, 0.4185593
2813.633, 0.4193752
2815.561, 0.4202115
2817.490, 0.4195945
2819.418, 0.4189426
2821.347, 0.4181058
2823.275, 0.4184191
2825.204, 0.4199263
2827.132, 0.4197691
2829.061, 0.4206783
2830.989, 0.4221713
2832.917, 0.4220538
2834.846, 0.4216361
2836.774, 0.4220856
2838.703, 0.4225149
2840.631, 0.4214413
2842.560, 0.4215292
2844.488, 0.4222207
2846.417, 0.4219644
2848.345, 0.4219974
2850.274, 0.4217170
2852.202, 0.4212307
2854.131, 0.4216645
2856.059, 0.4230540
2857.988, 0.4246190
2859.916, 0.4244725
2861.844, 0.4243938
2863.773, 0.4242038
2865.701, 0.4237117
2867.630, 0.4245553
2869.558, 0.4255284
2871.487, 0.4260457
2873.415, 0.4264094
2875.344, 0.4266381
2877.272, 0.4274548
2879.201, 0.4273501
2881.129, 0.4271584
2883.058, 0.4269348
2884.986, 0.4273960
2886.915, 0.4282392
2888.843, 0.4282703
2890.771, 0.4287985
2892.700, 0.4301260
2894.628, 0.4299109
2896.557, 0.4284357
2898.485, 0.4289839
2900.414, 0.4307947
2902.342, 0.4316162
2904.271, 0.4310097
2906.199, 0.4313918
2908.128, 0.4310943
2910.056, 0.4309070
2911.985, 0.4315009
2913.913, 0.4314995
2915.842, 0.4307833
2917.770, 0.4308216
2919.698, 0.4313014
2921.627, 0.4311691
2923.555, 0.4318815
2925.484, 0.4327605
2927.412, 0.4331046
2929.341, 0.4329363
2931.269, 0.4334467
2933.198, 0.4339674
2935.126, 0.4340420
2937.055, 0.4332880
2938.983, 0.4322757
2940.912, 0.4325621
2942.840, 0.4341088
2944.769, 0.4342474
2946.697, 0.4344487
2948.625, 0.4353165
2950.554, 0.4354094
2952.482, 0.4359593
2954.411, 0.4374638
2956.339, 0.4379853
2958.268, 0.4381764
2960.196, 0.4382439
2962.125, 0.4388511
2964.053, 0.4394302
2965.982, 0.4393978
2967.910, 0.4395256
2969.839, 0.4414287
2971.767, 0.4432884
2973.696, 0.4438573
2975.624, 0.4427054
2977.552, 0.4407800
2979.481, 0.4420186
2981.409, 0.4427266
2983.338, 0.4417759
2985.266, 0.4408571
2987.195, 0.4414187
2989.123, 0.4417340
2991.052, 0.4429051
2992.980, 0.4442974
2994.909, 0.4434752
2996.837, 0.4441309
2998.766, 0.4459092
3000.694, 0.4436105
3002.623, 0.4414015
3004.551, 0.4426855
3006.479, 0.4444840
3008.408, 0.4452615
3010.336, 0.4448051
3012.265, 0.4451170
3014.193, 0.4459123
3016.122, 0.4469806
3018.050, 0.4472046
3019.979, 0.4472607
3021.907, 0.4475952
3023.836, 0.4472332
3025.764, 0.4463217
3027.693, 0.4456050
3029.621, 0.4463604
3031.550, 0.4475434
3033.478, 0.4494514
3035.406, 0.4500199
3037.335, 0.4506339
3039.263, 0.4511721
3041.192, 0.4509108
3043.120, 0.4509490
3045.049, 0.4503428
3046.977, 0.4508935
3048.906, 0.4511300
3050.834, 0.4514736
3052.763, 0.4531555
3054.691, 0.4526736
3056.620, 0.4506482
3058.548, 0.4525058
3060.477, 0.4553059
3062.405, 0.4557859
3064.333, 0.4520315
3066.262, 0.4502273
3068.190, 0.4524105
3070.119, 0.4547510
3072.047, 0.4555776
3073.976, 0.4562389
3075.904, 0.4542859
3077.833, 0.4533563
3079.761, 0.4541804
3081.690, 0.4551934
3083.618, 0.4568177
3085.547, 0.4563402
3087.475, 0.4545257
3089.404, 0.4542587
3091.332, 0.4546502
3093.260, 0.4565477
3095.189, 0.4570137
3097.117, 0.4568549
3099.046, 0.4570882
3100.974, 0.4579341
3102.903, 0.4600495
3104.831, 0.4598911
3106.760, 0.4597165
3108.688, 0.4603903
3110.617, 0.4618539
3112.545, 0.4633044
3114.474, 0.4622992
3116.402, 0.4606699
3118.331, 0.4598132
3120.259, 0.4598051
3122.188, 0.4621989
3124.116, 0.4628286
3126.044, 0.4618752
3127.973, 0.4618303
3129.901, 0.4635232
3131.830, 0.4628144
3133.758, 0.4615438
3135.687, 0.4631934
3137.615, 0.4656700
3139.544, 0.4664027
3141.472, 0.4658177
3143.401, 0.4669352
3145.329, 0.4664439
3147.258, 0.4650259
3149.186, 0.4653136
3151.115, 0.4658149
3153.043, 0.4668558
3154.971, 0.4676370
3156.900, 0.4664876
3158.828, 0.4644414
3160.757, 0.4650241
3162.685, 0.4688089
3164.614, 0.4698042
3166.542, 0.4690379
3168.471, 0.4679887
3170.399, 0.4664457
3172.328, 0.4674967
3174.256, 0.4701459
3176.185, 0.4715056
3178.113, 0.4707631
3180.042, 0.4679228
3181.970, 0.4689310
3183.898, 0.4714028
3185.827, 0.4716623
3187.755, 0.4714445
3189.684, 0.4708591
3191.612, 0.4711051
3193.541, 0.4725845
3195.469, 0.4742604
3197.398, 0.4736654
3199.326, 0.4723679
3201.255, 0.4721829
3203.183, 0.4721412
3205.112, 0.4732687
3207.040, 0.4747005
3208.969, 0.4743496
3210.897, 0.4740115
3212.825, 0.4732075
3214.754, 0.4727066
3216.682, 0.4738805
3218.611, 0.4736341
3220.539, 0.4750233
3222.468, 0.4761697
3224.396, 0.4766091
3226.325, 0.4753939
3228.253, 0.4739345
3230.182, 0.4762562
3232.110, 0.4789582
3234.039, 0.4802418
3235.967, 0.4788438
3237.896, 0.4784100
3239.824, 0.4810430
3241.752, 0.4811618
3243.681, 0.4801607
3245.609, 0.4800549
3247.538, 0.4806592
3249.466, 0.4809295
3251.395, 0.4800780
3253.323, 0.4812593
3255.252, 0.4811797
3257.180, 0.4811928
3259.109, 0.4822801
3261.037, 0.4829024
3262.966, 0.4820872
3264.894, 0.4814521
3266.823, 0.4802526
3268.751, 0.4798404
3270.679, 0.4820422
3272.608, 0.4853561
3274.536, 0.4869072
3276.465, 0.4855615
3278.393, 0.4831606
3280.322, 0.4834783
3282.250, 0.4832317
3284.179, 0.4821813
3286.107, 0.4826082
3288.036, 0.4820275
3289.964, 0.4845806
3291.893, 0.4872973
3293.821, 0.4869993
3295.750, 0.4869008
3297.678, 0.4863248
3299.606, 0.4861133
3301.535, 0.4864894
3303.463, 0.4872412
3305.392, 0.4878024
3307.320, 0.4879191
3309.249, 0.4892836
3311.177, 0.4899916
3313.106, 0.4890703
3315.034, 0.4884618
3316.963, 0.4880006
3318.891, 0.4881000
3320.820, 0.4888698
3322.748, 0.4920554
3324.677, 0.4910924
3326.605, 0.4890999
3328.533, 0.4909880
3330.462, 0.4938744
3332.390, 0.4939188
3334.319, 0.4930834
3336.247, 0.4934121
3338.176, 0.4910502
3340.104, 0.4879858
3342.033, 0.4885938
3343.961, 0.4913775
3345.890, 0.4948335
3347.818, 0.4951624
3349.747, 0.4928351
3351.675, 0.4936888
3353.604, 0.4952683
3355.532, 0.4939776
3357.460, 0.4954747
3359.389, 0.4956434
3361.317, 0.4954575
3363.246, 0.4944214
3365.174, 0.4939359
3367.103, 0.4925741
3369.031, 0.4923874
3370.960, 0.4955375
3372.888, 0.4989032
3374.817, 0.4986274
3376.745, 0.4946843
3378.674, 0.4939955
3380.602, 0.4930465
3382.531, 0.4931984
3384.459, 0.4967474
3386.387, 0.4983947
3388.316, 0.4977820
3390.244, 0.4999194
3392.173, 0.5001258
3394.101, 0.4990667
3396.030, 0.5001139
3397.958, 0.4993996
3399.887, 0.4986612
3401.815, 0.5000106
3403.744, 0.5042406
3405.672, 0.5055076
3407.601, 0.5047971
3409.529, 0.5049139
3411.458, 0.5028840
3413.386, 0.5023273
3415.314, 0.5019878
3417.243, 0.5002360
3419.171, 0.5009711
3421.100, 0.5040213
3423.028, 0.5038665
3424.957, 0.5064517
3426.885, 0.5085223
3428.814, 0.5068672
3430.742, 0.5015035
3432.671, 0.5015774
3434.599, 0.5063952
3436.528, 0.5053297
3438.456, 0.5036765
3440.385, 0.5067191
3442.313, 0.5088843
3444.241, 0.5080007
3446.170, 0.5091302
3448.098, 0.5101414
3450.027, 0.5080680
3451.955, 0.5097864
3453.884, 0.5112647
3455.812, 0.5101064
3457.741, 0.5072582
3459.669, 0.5091616
3461.598, 0.5101089
3463.526, 0.5095484
3465.455, 0.5127929
3467.383, 0.5142636
3469.312, 0.5136912
3471.240, 0.5122086
3473.168, 0.5090663
3475.097, 0.5127955
3477.025, 0.5152423
3478.954, 0.5146975
3480.882, 0.5149465
3482.811, 0.5155738
3484.739, 0.5138134
3486.668, 0.5149518
3488.596, 0.5145360
3490.525, 0.5135323
3492.453, 0.5151715
3494.382, 0.5146005
3496.310, 0.5134786
3498.239, 0.5140479
3500.167, 0.5166153
3502.095, 0.5147213
3504.024, 0.5172204
3505.952, 0.5195062
3507.881, 0.5193090
3509.809, 0.5183684
3511.738, 0.5172918
3513.666, 0.5171316
3515.595, 0.5189375
3517.523, 0.5199717
3519.452, 0.5159971
3521.380, 0.5150832
3523.309, 0.5177442
3525.237, 0.5186998
3527.166, 0.5215302
3529.094, 0.5230507
3531.022, 0.5199742
3532.951, 0.5197383
3534.879, 0.5242466
3536.808, 0.5263685
3538.736, 0.5244678
3540.665, 0.5240342
3542.593, 0.5244154
3544.522, 0.5226994
3546.450, 0.5211883
3548.379, 0.5235819
3550.307, 0.5239483
3552.236, 0.5209782
3554.164, 0.5228815
3556.093, 0.5255010
3558.021, 0.5258771
3559.949, 0.5269368
3561.878, 0.5267726
3563.806, 0.5264053
3565.735, 0.5256747
3567.663, 0.5240360
3569.592, 0.5244604
3571.520, 0.5253506
3573.449, 0.5225868
3575.377, 0.5231048
3577.306, 0.5292874
3579.234, 0.5328894
3581.163, 0.5316705
3583.091, 0.5289134
3585.020, 0.5284630
3586.948, 0.5303122
3588.876, 0.5326363
3590.805, 0.5318502
3592.733, 0.5297824
3594.662, 0.5297734
3596.590, 0.5310230
3598.519, 0.5309787
3600.447, 0.5288706
3602.376, 0.5287965
3604.304, 0.5316571
3606.233, 0.5338414
3608.161, 0.5344896
3610.090, 0.5306410
3612.018, 0.5286354
3613.947, 0.5338002
3615.875, 0.5367231
3617.803, 0.5338773
3619.732, 0.5299578
3621.660, 0.5315206
3623.589, 0.5369449
3625.517, 0.5389411
3627.446, 0.5370728
3629.374, 0.5354549
3631.303, 0.5359608
3633.231, 0.5337997
3635.160, 0.5316574
3637.088, 0.5319353
3639.017, 0.5343693
3640.945, 0.5358713
3642.874, 0.5351804
3644.802, 0.5364497
3646.730, 0.5398814
3648.659, 0.5413344
3650.587, 0.5405638
3652.516, 0.5418513
3654.444, 0.5421268
3656.373, 0.5416844
3658.301, 0.5439565
3660.230, 0.5436057
3662.158, 0.5400369
3664.087, 0.5357696
3666.015, 0.5372540
3667.944, 0.5419297
3669.872, 0.5412328
3671.801, 0.5385898
3673.729, 0.5374252
3675.657, 0.5407916
3677.586, 0.5429821
3679.514, 0.5416730
3681.443, 0.5415595
3683.371, 0.5432138
3685.300, 0.5474435
3687.228, 0.5480356
3689.157, 0.5436179
3691.085, 0.5430630
3693.014, 0.5470991
3694.942, 0.5460589
3696.871, 0.5449488
3698.799, 0.5497974
3700.728, 0.5481667
3702.656, 0.5465928
3704.584, 0.5473387
3706.513, 0.5497850
3708.441, 0.5506980
3710.370, 0.5474887
3712.298, 0.5445210
3714.227, 0.5435914
3716.155, 0.5435694
3718.084, 0.5474623
3720.012, 0.5511943
3721.941, 0.5502400
3723.869, 0.5467569
3725.798, 0.5486484
3727.726, 0.5535010
3729.655, 0.5544614
3731.583, 0.5550153
3733.511, 0.5546306
3735.440, 0.5535563
3737.368, 0.5515494
3739.297, 0.5502784
3741.225, 0.5514976
3743.154, 0.5536143
3745.082, 0.5588766
3747.011, 0.5585111
3748.939, 0.5562249
3750.868, 0.5564498
3752.796, 0.5584893
3754.725, 0.5592881
3756.653, 0.5552062
3758.582, 0.5545709
3760.510, 0.5559608
3762.438, 0.5552464
3764.367, 0.5505841
3766.295, 0.5522659
3768.224, 0.5558487
3770.152, 0.5600054
3772.081, 0.5616282
3774.009, 0.5610137
3775.938, 0.5607926
3777.866, 0.5617064
3779.795, 0.5597940
3781.723, 0.5603158
3783.652, 0.5583730
3785.580, 0.5583895
3787.509, 0.5591450
3789.437, 0.5610157
3791.365, 0.5623676
3793.294, 0.5611156
3795.222, 0.5630043
3797.151, 0.5633236
3799.079, 0.5603998
3801.008, 0.5618988
3802.936, 0.5658039
3804.865, 0.5648192
3806.793, 0.5659503
3808.722, 0.5660018
3810.650, 0.5659018
3812.579, 0.5672681
3814.507, 0.5675560
3816.436, 0.5674765
3818.364, 0.5673475
3820.292, 0.5671299
3822.221, 0.5673397
3824.149, 0.5671254
3826.078, 0.5641972
3828.006, 0.5664144
3829.935, 0.5694194
3831.863, 0.5695241
3833.792, 0.5674129
3835.720, 0.5681389
3837.649, 0.5682105
3839.577, 0.5654088
3841.506, 0.5657990
3843.434, 0.5666051
3845.363, 0.5649386
3847.291, 0.5660893
3849.219, 0.5670443
3851.148, 0.5692967
3853.076, 0.5699202
3855.005, 0.5714400
3856.933, 0.5693398
3858.862, 0.5669733
3860.790, 0.5684129
3862.719, 0.5724142
3864.647, 0.5739765
3866.576, 0.5748585
3868.504, 0.5702214
3870.433, 0.5670568
3872.361, 0.5689536
3874.290, 0.5727564
3876.218, 0.5704893
3878.146, 0.5683252
3880.075, 0.5702499
3882.003, 0.5707879
3883.932, 0.5748914
3885.860, 0.5790786
3887.789, 0.5772792
3889.717, 0.5743777
3891.646, 0.5732598
3893.574, 0.5713151
3895.503, 0.5700837
3897.431, 0.5709416
3899.360, 0.5717419
3901.288, 0.5767274
3903.217, 0.5804004
3905.145, 0.5787028
3907.073, 0.5784031
3909.002, 0.5747457
3910.930, 0.5711794
3912.859, 0.5721363
3914.787, 0.5770844
3916.716, 0.5802398
3918.644, 0.5797307
3920.573, 0.5777876
3922.501, 0.5768998
3924.430, 0.5753779
3926.358, 0.5764994
3928.287, 0.5775121
3930.215, 0.5788502
3932.144, 0.5770769
3934.072, 0.5777751
3936.000, 0.5772802
3937.929, 0.5806224
3939.857, 0.5845289
3941.786, 0.5839552
3943.714, 0.5833901
3945.643, 0.5828454
3947.571, 0.5813269
3949.500, 0.5839246
3951.428, 0.5859491
3953.357, 0.5863789
3955.285, 0.5888594
3957.214, 0.5848359
3959.142, 0.5801134
3961.071, 0.5815970
3962.999, 0.5811739
3964.927, 0.5799646
3966.856, 0.5813285
3968.784, 0.5855079
3970.713, 0.5879523
3972.641, 0.5867735
3974.570, 0.5885587
3976.498, 0.5920081
3978.427, 0.5903026
3980.355, 0.5838831
3982.284, 0.5791451
3984.212, 0.5797238
3986.141, 0.5845804
3988.069, 0.5912518
3989.998, 0.5937368
3991.926, 0.5897111
3993.854, 0.5853387
3995.783, 0.5883345
3997.711, 0.5930458
3999.640, 0.5933319
##END=



