##NAMES=Hydromagnesite
##RRUFFID=R060011
##IDEAL CHEMISTRY=Mg_5_(CO_3_)_4_(OH)_2_&#183;4H_2_O
##LOCALITY=Paradise Range, Nye County, Nevada, USA
##OWNER=RRUFF
##SOURCE=University of Arizona Mineral Museum
##DESCRIPTION=Colorless bladed crystals
##STATUS=The identification of this mineral has been confirmed by X-ray diffraction and chemical analysis
##URL=rruff.info/R060011
##MEASURED CHEMISTRY=Mg_5.00_(CO_3_)_4_(OH)_2_Â·4H_2_O
3.991926e+002, 2.202864e-001
4.011211e+002, 2.482252e-001
4.030495e+002, 2.647882e-001
4.049780e+002, 2.428185e-001
4.069065e+002, 2.325642e-001
4.088349e+002, 2.300756e-001
4.107634e+002, 2.308121e-001
4.126919e+002, 2.298731e-001
4.146203e+002, 2.332388e-001
4.165488e+002, 2.332035e-001
4.184773e+002, 2.312717e-001
4.204057e+002, 2.344327e-001
4.223342e+002, 2.333270e-001
4.242627e+002, 2.394794e-001
4.261911e+002, 2.423467e-001
4.281196e+002, 2.400468e-001
4.300481e+002, 2.394423e-001
4.319765e+002, 2.312262e-001
4.339050e+002, 2.196489e-001
4.358335e+002, 2.125140e-001
4.377619e+002, 2.054633e-001
4.396904e+002, 1.896671e-001
4.416189e+002, 1.717180e-001
4.435473e+002, 1.635110e-001
4.454758e+002, 1.570286e-001
4.474043e+002, 1.494201e-001
4.493327e+002, 1.416891e-001
4.512612e+002, 1.351731e-001
4.531897e+002, 1.308681e-001
4.551181e+002, 1.298727e-001
4.570466e+002, 1.291489e-001
4.589751e+002, 1.260928e-001
4.609035e+002, 1.240778e-001
4.628320e+002, 1.235664e-001
4.647605e+002, 1.241788e-001
4.666889e+002, 1.259762e-001
4.686174e+002, 1.248303e-001
4.705459e+002, 1.233033e-001
4.724743e+002, 1.238794e-001
4.744028e+002, 1.227144e-001
4.763313e+002, 1.200671e-001
4.782597e+002, 1.179611e-001
4.801882e+002, 1.131975e-001
4.821167e+002, 1.064251e-001
4.840451e+002, 1.001788e-001
4.859736e+002, 9.343745e-002
4.879021e+002, 8.669443e-002
4.898305e+002, 8.096784e-002
4.917590e+002, 7.633176e-002
4.936875e+002, 7.210957e-002
4.956159e+002, 6.916937e-002
4.975444e+002, 6.676508e-002
4.994729e+002, 6.452625e-002
5.014013e+002, 6.344108e-002
5.033298e+002, 6.216511e-002
5.052583e+002, 6.054328e-002
5.071867e+002, 6.001317e-002
5.091152e+002, 5.979268e-002
5.110437e+002, 5.985096e-002
5.129721e+002, 6.003973e-002
5.149006e+002, 5.958829e-002
5.168290e+002, 5.926819e-002
5.187575e+002, 5.853271e-002
5.206860e+002, 5.854107e-002
5.226144e+002, 5.888541e-002
5.245429e+002, 5.814850e-002
5.264714e+002, 5.810731e-002
5.283998e+002, 5.924121e-002
5.303283e+002, 6.070916e-002
5.322568e+002, 6.140295e-002
5.341852e+002, 6.297389e-002
5.361137e+002, 6.501668e-002
5.380422e+002, 6.642124e-002
5.399706e+002, 6.783481e-002
5.418991e+002, 6.940126e-002
5.438276e+002, 7.170526e-002
5.457560e+002, 7.395381e-002
5.476845e+002, 7.644380e-002
5.496130e+002, 7.948419e-002
5.515414e+002, 8.344006e-002
5.534699e+002, 8.692042e-002
5.553984e+002, 9.107427e-002
5.573268e+002, 9.651361e-002
5.592553e+002, 1.015792e-001
5.611838e+002, 1.082049e-001
5.631122e+002, 1.151503e-001
5.650407e+002, 1.228942e-001
5.669692e+002, 1.313715e-001
5.688976e+002, 1.404588e-001
5.708261e+002, 1.492972e-001
5.727546e+002, 1.575289e-001
5.746830e+002, 1.655781e-001
5.766115e+002, 1.742726e-001
5.785400e+002, 1.816024e-001
5.804684e+002, 1.883717e-001
5.823969e+002, 1.950342e-001
5.843254e+002, 1.987255e-001
5.862538e+002, 1.999160e-001
5.881823e+002, 2.000546e-001
5.901108e+002, 1.993130e-001
5.920392e+002, 1.978769e-001
5.939677e+002, 1.952835e-001
5.958962e+002, 1.911767e-001
5.978246e+002, 1.854875e-001
5.997531e+002, 1.797908e-001
6.016816e+002, 1.750446e-001
6.036100e+002, 1.689319e-001
6.055385e+002, 1.622417e-001
6.074670e+002, 1.556340e-001
6.093954e+002, 1.485780e-001
6.113239e+002, 1.420438e-001
6.132524e+002, 1.361667e-001
6.151808e+002, 1.296422e-001
6.171093e+002, 1.236627e-001
6.190378e+002, 1.184967e-001
6.209662e+002, 1.128731e-001
6.228947e+002, 1.074799e-001
6.248232e+002, 1.026262e-001
6.267516e+002, 9.890822e-002
6.286801e+002, 9.494819e-002
6.306086e+002, 9.130588e-002
6.325370e+002, 8.841387e-002
6.344655e+002, 8.630195e-002
6.363940e+002, 8.382521e-002
6.383224e+002, 8.215838e-002
6.402509e+002, 8.072901e-002
6.421794e+002, 7.933351e-002
6.441078e+002, 7.848830e-002
6.460363e+002, 7.778004e-002
6.479648e+002, 7.685247e-002
6.498932e+002, 7.644757e-002
6.518217e+002, 7.634910e-002
6.537502e+002, 7.604452e-002
6.556786e+002, 7.561165e-002
6.576071e+002, 7.528695e-002
6.595356e+002, 7.483593e-002
6.614641e+002, 7.393708e-002
6.633925e+002, 7.267867e-002
6.653210e+002, 7.106905e-002
6.672495e+002, 6.903110e-002
6.691779e+002, 6.610181e-002
6.711064e+002, 6.338768e-002
6.730349e+002, 6.153141e-002
6.749633e+002, 6.035066e-002
6.768918e+002, 5.979361e-002
6.788203e+002, 5.860772e-002
6.807487e+002, 5.765587e-002
6.826772e+002, 5.773525e-002
6.846057e+002, 5.828797e-002
6.865341e+002, 5.919484e-002
6.884626e+002, 6.029834e-002
6.903911e+002, 6.173468e-002
6.923195e+002, 6.349023e-002
6.942480e+002, 6.568440e-002
6.961765e+002, 6.823731e-002
6.981049e+002, 7.026061e-002
7.000334e+002, 7.198024e-002
7.019619e+002, 7.426330e-002
7.038903e+002, 7.654565e-002
7.058188e+002, 7.865174e-002
7.077473e+002, 8.031368e-002
7.096757e+002, 8.194292e-002
7.116042e+002, 8.327343e-002
7.135327e+002, 8.390953e-002
7.154611e+002, 8.337031e-002
7.173896e+002, 8.158132e-002
7.193181e+002, 7.955074e-002
7.212465e+002, 7.858378e-002
7.231750e+002, 7.939637e-002
7.251035e+002, 8.044761e-002
7.270319e+002, 8.180959e-002
7.289604e+002, 8.265779e-002
7.308889e+002, 8.240291e-002
7.328173e+002, 8.223133e-002
7.347458e+002, 8.240268e-002
7.366743e+002, 8.321366e-002
7.386027e+002, 8.542307e-002
7.405312e+002, 8.944388e-002
7.424597e+002, 9.303710e-002
7.443881e+002, 9.413849e-002
7.463166e+002, 9.278677e-002
7.482451e+002, 9.084658e-002
7.501735e+002, 8.903380e-002
7.521020e+002, 8.771772e-002
7.540305e+002, 8.703171e-002
7.559589e+002, 8.749129e-002
7.578874e+002, 8.935723e-002
7.598159e+002, 9.221572e-002
7.617443e+002, 9.592730e-002
7.636728e+002, 1.013680e-001
7.656013e+002, 1.091970e-001
7.675297e+002, 1.193058e-001
7.694582e+002, 1.308799e-001
7.713867e+002, 1.438645e-001
7.733151e+002, 1.570947e-001
7.752436e+002, 1.698382e-001
7.771721e+002, 1.809526e-001
7.791005e+002, 1.888132e-001
7.810290e+002, 1.920572e-001
7.829575e+002, 1.905673e-001
7.848859e+002, 1.857259e-001
7.868144e+002, 1.787590e-001
7.887429e+002, 1.697455e-001
7.906713e+002, 1.596051e-001
7.925998e+002, 1.488570e-001
7.945283e+002, 1.372291e-001
7.964567e+002, 1.256163e-001
7.983852e+002, 1.151769e-001
8.003137e+002, 1.050570e-001
8.022421e+002, 9.578931e-002
8.041706e+002, 8.752992e-002
8.060991e+002, 8.021695e-002
8.080275e+002, 7.453255e-002
8.099560e+002, 6.975053e-002
8.118845e+002, 6.548525e-002
8.138129e+002, 6.193196e-002
8.157414e+002, 5.843870e-002
8.176699e+002, 5.570776e-002
8.195983e+002, 5.407705e-002
8.215268e+002, 5.287069e-002
8.234553e+002, 5.144944e-002
8.253837e+002, 5.036698e-002
8.273122e+002, 5.007181e-002
8.292407e+002, 4.986506e-002
8.311691e+002, 4.944081e-002
8.330976e+002, 4.913997e-002
8.350261e+002, 4.929346e-002
8.369545e+002, 4.991316e-002
8.388830e+002, 5.109945e-002
8.408115e+002, 5.281074e-002
8.427399e+002, 5.504520e-002
8.446684e+002, 5.845541e-002
8.465969e+002, 6.480804e-002
8.485253e+002, 7.576444e-002
8.504538e+002, 8.874052e-002
8.523823e+002, 9.456729e-002
8.543107e+002, 8.787696e-002
8.562392e+002, 7.523815e-002
8.581677e+002, 6.316683e-002
8.600961e+002, 5.345588e-002
8.620246e+002, 4.636684e-002
8.639531e+002, 4.124235e-002
8.658815e+002, 3.832251e-002
8.678100e+002, 3.772642e-002
8.697385e+002, 3.796827e-002
8.716669e+002, 3.911739e-002
8.735954e+002, 4.162294e-002
8.755239e+002, 4.540782e-002
8.774523e+002, 5.056875e-002
8.793808e+002, 6.093618e-002
8.813093e+002, 8.234022e-002
8.832377e+002, 1.076963e-001
8.851662e+002, 1.013276e-001
8.870947e+002, 6.550040e-002
8.890231e+002, 3.976643e-002
8.909516e+002, 3.068177e-002
8.928801e+002, 2.825084e-002
8.948085e+002, 2.729074e-002
8.967370e+002, 2.667880e-002
8.986655e+002, 2.635912e-002
9.005939e+002, 2.636703e-002
9.025224e+002, 2.644876e-002
9.044509e+002, 2.624821e-002
9.063793e+002, 2.631509e-002
9.083078e+002, 2.690954e-002
9.102363e+002, 2.721046e-002
9.121647e+002, 2.730923e-002
9.140932e+002, 2.735140e-002
9.160217e+002, 2.750536e-002
9.179501e+002, 2.769731e-002
9.198786e+002, 2.729368e-002
9.218071e+002, 2.730813e-002
9.237355e+002, 2.749006e-002
9.256640e+002, 2.731339e-002
9.275925e+002, 2.720992e-002
9.295209e+002, 2.719032e-002
9.314494e+002, 2.720074e-002
9.333779e+002, 2.698016e-002
9.353063e+002, 2.670988e-002
9.372348e+002, 2.682395e-002
9.391633e+002, 2.700334e-002
9.410917e+002, 2.669626e-002
9.430202e+002, 2.657542e-002
9.449487e+002, 2.653694e-002
9.468771e+002, 2.611383e-002
9.488056e+002, 2.571275e-002
9.507341e+002, 2.602183e-002
9.526625e+002, 2.598362e-002
9.545910e+002, 2.589044e-002
9.565195e+002, 2.543153e-002
9.584479e+002, 2.495624e-002
9.603764e+002, 2.477808e-002
9.623049e+002, 2.446097e-002
9.642333e+002, 2.441285e-002
9.661618e+002, 2.470343e-002
9.680903e+002, 2.493084e-002
9.700187e+002, 2.475688e-002
9.719472e+002, 2.433336e-002
9.738757e+002, 2.394313e-002
9.758041e+002, 2.335889e-002
9.777326e+002, 2.314103e-002
9.796611e+002, 2.329212e-002
9.815895e+002, 2.267525e-002
9.835180e+002, 2.212821e-002
9.854465e+002, 2.215933e-002
9.873749e+002, 2.155823e-002
9.893034e+002, 2.095190e-002
9.912319e+002, 2.072766e-002
9.931603e+002, 2.036193e-002
9.950888e+002, 2.004151e-002
9.970173e+002, 1.982454e-002
9.989457e+002, 1.948641e-002
1.000874e+003, 1.912743e-002
1.002803e+003, 1.884985e-002
1.004731e+003, 1.838472e-002
1.006660e+003, 1.806102e-002
1.008588e+003, 1.806678e-002
1.010517e+003, 1.814201e-002
1.012445e+003, 1.803932e-002
1.014373e+003, 1.765409e-002
1.016302e+003, 1.745638e-002
1.018230e+003, 1.721016e-002
1.020159e+003, 1.659498e-002
1.022087e+003, 1.628196e-002
1.024016e+003, 1.581137e-002
1.025944e+003, 1.538698e-002
1.027873e+003, 1.531234e-002
1.029801e+003, 1.544988e-002
1.031730e+003, 1.544216e-002
1.033658e+003, 1.502216e-002
1.035587e+003, 1.483455e-002
1.037515e+003, 1.490748e-002
1.039443e+003, 1.495103e-002
1.041372e+003, 1.474507e-002
1.043300e+003, 1.464782e-002
1.045229e+003, 1.499662e-002
1.047157e+003, 1.522538e-002
1.049086e+003, 1.517424e-002
1.051014e+003, 1.524732e-002
1.052943e+003, 1.537566e-002
1.054871e+003, 1.552464e-002
1.056800e+003, 1.549427e-002
1.058728e+003, 1.510924e-002
1.060657e+003, 1.479307e-002
1.062585e+003, 1.454929e-002
1.064514e+003, 1.471634e-002
1.066442e+003, 1.539595e-002
1.068370e+003, 1.607199e-002
1.070299e+003, 1.611708e-002
1.072227e+003, 1.583984e-002
1.074156e+003, 1.551703e-002
1.076084e+003, 1.535704e-002
1.078013e+003, 1.538308e-002
1.079941e+003, 1.570897e-002
1.081870e+003, 1.626193e-002
1.083798e+003, 1.650000e-002
1.085727e+003, 1.656829e-002
1.087655e+003, 1.710561e-002
1.089584e+003, 1.766716e-002
1.091512e+003, 1.808436e-002
1.093441e+003, 1.855166e-002
1.095369e+003, 1.910011e-002
1.097297e+003, 2.010737e-002
1.099226e+003, 2.084725e-002
1.101154e+003, 2.209954e-002
1.103083e+003, 2.446296e-002
1.105011e+003, 2.803791e-002
1.106940e+003, 3.259251e-002
1.108868e+003, 3.654187e-002
1.110797e+003, 3.803029e-002
1.112725e+003, 3.817790e-002
1.114654e+003, 4.080438e-002
1.116582e+003, 4.653039e-002
1.118511e+003, 5.179971e-002
1.120439e+003, 5.131258e-002
1.122368e+003, 4.486659e-002
1.124296e+003, 3.638645e-002
1.126224e+003, 2.947867e-002
1.128153e+003, 2.526675e-002
1.130081e+003, 2.279065e-002
1.132010e+003, 2.078438e-002
1.133938e+003, 1.963398e-002
1.135867e+003, 1.940350e-002
1.137795e+003, 1.925061e-002
1.139724e+003, 1.863306e-002
1.141652e+003, 1.849616e-002
1.143581e+003, 1.898665e-002
1.145509e+003, 1.913430e-002
1.147438e+003, 1.900996e-002
1.149366e+003, 1.866192e-002
1.151295e+003, 1.872916e-002
1.153223e+003, 1.869353e-002
1.155151e+003, 1.814348e-002
1.157080e+003, 1.826365e-002
1.159008e+003, 1.843620e-002
1.160937e+003, 1.835161e-002
1.162865e+003, 1.806744e-002
1.164794e+003, 1.802721e-002
1.166722e+003, 1.832866e-002
1.168651e+003, 1.872162e-002
1.170579e+003, 1.820888e-002
1.172508e+003, 1.813907e-002
1.174436e+003, 1.890395e-002
1.176365e+003, 1.920251e-002
1.178293e+003, 1.879038e-002
1.180222e+003, 1.887461e-002
1.182150e+003, 1.914036e-002
1.184078e+003, 1.938392e-002
1.186007e+003, 1.988277e-002
1.187935e+003, 2.016222e-002
1.189864e+003, 2.036843e-002
1.191792e+003, 2.027195e-002
1.193721e+003, 2.013424e-002
1.195649e+003, 2.031473e-002
1.197578e+003, 2.080142e-002
1.199506e+003, 2.107900e-002
1.201435e+003, 2.090990e-002
1.203363e+003, 2.071180e-002
1.205292e+003, 2.074591e-002
1.207220e+003, 2.080615e-002
1.209149e+003, 2.127127e-002
1.211077e+003, 2.193663e-002
1.213005e+003, 2.207483e-002
1.214934e+003, 2.163066e-002
1.216862e+003, 2.171490e-002
1.218791e+003, 2.244519e-002
1.220719e+003, 2.287406e-002
1.222648e+003, 2.342178e-002
1.224576e+003, 2.367287e-002
1.226505e+003, 2.406024e-002
1.228433e+003, 2.437242e-002
1.230362e+003, 2.503201e-002
1.232290e+003, 2.535318e-002
1.234219e+003, 2.525729e-002
1.236147e+003, 2.549867e-002
1.238076e+003, 2.596023e-002
1.240004e+003, 2.632169e-002
1.241932e+003, 2.661198e-002
1.243861e+003, 2.723806e-002
1.245789e+003, 2.784199e-002
1.247718e+003, 2.791769e-002
1.249646e+003, 2.835818e-002
1.251575e+003, 2.893996e-002
1.253503e+003, 2.913876e-002
1.255432e+003, 2.944082e-002
1.257360e+003, 2.996063e-002
1.259289e+003, 3.009069e-002
1.261217e+003, 3.051635e-002
1.263146e+003, 3.150526e-002
1.265074e+003, 3.230352e-002
1.267003e+003, 3.291039e-002
1.268931e+003, 3.364608e-002
1.270859e+003, 3.469791e-002
1.272788e+003, 3.528700e-002
1.274716e+003, 3.569953e-002
1.276645e+003, 3.629305e-002
1.278573e+003, 3.675455e-002
1.280502e+003, 3.721032e-002
1.282430e+003, 3.809303e-002
1.284359e+003, 3.873969e-002
1.286287e+003, 3.896449e-002
1.288216e+003, 3.939974e-002
1.290144e+003, 3.986479e-002
1.292073e+003, 4.027685e-002
1.294001e+003, 4.092881e-002
1.295930e+003, 4.174018e-002
1.297858e+003, 4.271430e-002
1.299786e+003, 4.387389e-002
1.301715e+003, 4.504269e-002
1.303643e+003, 4.591016e-002
1.305572e+003, 4.706980e-002
1.307500e+003, 4.838016e-002
1.309429e+003, 4.955576e-002
1.311357e+003, 5.093065e-002
1.313286e+003, 5.245379e-002
1.315214e+003, 5.421707e-002
1.317143e+003, 5.580422e-002
1.319071e+003, 5.725837e-002
1.321000e+003, 5.889879e-002
1.322928e+003, 6.084114e-002
1.324857e+003, 6.308566e-002
1.326785e+003, 6.531627e-002
1.328714e+003, 6.759092e-002
1.330642e+003, 6.997397e-002
1.332570e+003, 7.263397e-002
1.334499e+003, 7.549962e-002
1.336427e+003, 7.855034e-002
1.338356e+003, 8.171427e-002
1.340284e+003, 8.492671e-002
1.342213e+003, 8.871030e-002
1.344141e+003, 9.319557e-002
1.346070e+003, 9.753966e-002
1.347998e+003, 1.018548e-001
1.349927e+003, 1.072288e-001
1.351855e+003, 1.129353e-001
1.353784e+003, 1.187449e-001
1.355712e+003, 1.251318e-001
1.357641e+003, 1.321220e-001
1.359569e+003, 1.394705e-001
1.361497e+003, 1.469592e-001
1.363426e+003, 1.556797e-001
1.365354e+003, 1.645992e-001
1.367283e+003, 1.738964e-001
1.369211e+003, 1.847628e-001
1.371140e+003, 1.967244e-001
1.373068e+003, 2.095407e-001
1.374997e+003, 2.231021e-001
1.376925e+003, 2.371051e-001
1.378854e+003, 2.522155e-001
1.380782e+003, 2.694719e-001
1.382711e+003, 2.873178e-001
1.384639e+003, 3.060330e-001
1.386568e+003, 3.265776e-001
1.388496e+003, 3.481849e-001
1.390424e+003, 3.712260e-001
1.392353e+003, 3.946810e-001
1.394281e+003, 4.190799e-001
1.396210e+003, 4.444576e-001
1.398138e+003, 4.693980e-001
1.400067e+003, 4.923420e-001
1.401995e+003, 5.138442e-001
1.403924e+003, 5.359353e-001
1.405852e+003, 5.608020e-001
1.407781e+003, 5.873985e-001
1.409709e+003, 6.149211e-001
1.411638e+003, 6.406317e-001
1.413566e+003, 6.624927e-001
1.415495e+003, 6.780995e-001
1.417423e+003, 6.849644e-001
1.419351e+003, 6.826583e-001
1.421280e+003, 6.728973e-001
1.423208e+003, 6.569609e-001
1.425137e+003, 6.373816e-001
1.427065e+003, 6.146026e-001
1.428994e+003, 5.892310e-001
1.430922e+003, 5.633663e-001
1.432851e+003, 5.382176e-001
1.434779e+003, 5.142000e-001
1.436708e+003, 4.912887e-001
1.438636e+003, 4.703330e-001
1.440565e+003, 4.527604e-001
1.442493e+003, 4.381065e-001
1.444422e+003, 4.256814e-001
1.446350e+003, 4.160518e-001
1.448278e+003, 4.090364e-001
1.450207e+003, 4.039738e-001
1.452135e+003, 4.007075e-001
1.454064e+003, 3.985023e-001
1.455992e+003, 3.969282e-001
1.457921e+003, 3.958591e-001
1.459849e+003, 3.957228e-001
1.461778e+003, 3.944926e-001
1.463706e+003, 3.923026e-001
1.465635e+003, 3.897864e-001
1.467563e+003, 3.869937e-001
1.469492e+003, 3.839869e-001
1.471420e+003, 3.812058e-001
1.473349e+003, 3.779911e-001
1.475277e+003, 3.746254e-001
1.477205e+003, 3.706114e-001
1.479134e+003, 3.648621e-001
1.481062e+003, 3.566934e-001
1.482991e+003, 3.462936e-001
1.484919e+003, 3.339538e-001
1.486848e+003, 3.213233e-001
1.488776e+003, 3.101113e-001
1.490705e+003, 3.004523e-001
1.492633e+003, 2.911579e-001
1.494562e+003, 2.837577e-001
1.496490e+003, 2.778965e-001
1.498419e+003, 2.720722e-001
1.500347e+003, 2.661594e-001
1.502276e+003, 2.601002e-001
1.504204e+003, 2.540531e-001
1.506132e+003, 2.483732e-001
1.508061e+003, 2.428269e-001
1.509989e+003, 2.375552e-001
1.511918e+003, 2.327701e-001
1.513846e+003, 2.286136e-001
1.515775e+003, 2.247047e-001
1.517703e+003, 2.202259e-001
1.519632e+003, 2.147718e-001
1.521560e+003, 2.081789e-001
1.523489e+003, 2.007811e-001
1.525417e+003, 1.935763e-001
1.527346e+003, 1.869868e-001
1.529274e+003, 1.803300e-001
1.531203e+003, 1.735991e-001
1.533131e+003, 1.678636e-001
1.535059e+003, 1.620953e-001
1.536988e+003, 1.561394e-001
1.538916e+003, 1.504312e-001
1.540845e+003, 1.451512e-001
1.542773e+003, 1.402263e-001
1.544702e+003, 1.353169e-001
1.546630e+003, 1.302306e-001
1.548559e+003, 1.251528e-001
1.550487e+003, 1.202333e-001
1.552416e+003, 1.157610e-001
1.554344e+003, 1.114698e-001
1.556273e+003, 1.077622e-001
1.558201e+003, 1.039285e-001
1.560130e+003, 9.994548e-002
1.562058e+003, 9.607288e-002
1.563986e+003, 9.213556e-002
1.565915e+003, 8.831731e-002
1.567843e+003, 8.487912e-002
1.569772e+003, 8.183561e-002
1.571700e+003, 7.891244e-002
1.573629e+003, 7.620618e-002
1.575557e+003, 7.338409e-002
1.577486e+003, 7.024658e-002
1.579414e+003, 6.812593e-002
1.581343e+003, 6.649439e-002
1.583271e+003, 6.453573e-002
1.585200e+003, 6.227358e-002
1.587128e+003, 6.010142e-002
1.589057e+003, 5.816580e-002
1.590985e+003, 5.663424e-002
1.592913e+003, 5.503106e-002
1.594842e+003, 5.391335e-002
1.596770e+003, 5.279664e-002
1.598699e+003, 5.139780e-002
1.600627e+003, 4.989257e-002
1.602556e+003, 4.863920e-002
1.604484e+003, 4.753658e-002
1.606413e+003, 4.649666e-002
1.608341e+003, 4.568631e-002
1.610270e+003, 4.495785e-002
1.612198e+003, 4.427870e-002
1.614127e+003, 4.326741e-002
1.616055e+003, 4.240419e-002
1.617984e+003, 4.176400e-002
1.619912e+003, 4.145274e-002
1.621840e+003, 4.074280e-002
1.623769e+003, 4.017312e-002
1.625697e+003, 4.008952e-002
1.627626e+003, 3.978041e-002
1.629554e+003, 3.933683e-002
1.631483e+003, 3.882242e-002
1.633411e+003, 3.854829e-002
1.635340e+003, 3.819657e-002
1.637268e+003, 3.843107e-002
1.639197e+003, 3.797700e-002
1.641125e+003, 3.758390e-002
1.643054e+003, 3.775364e-002
1.644982e+003, 3.837796e-002
1.646911e+003, 3.814743e-002
1.648839e+003, 3.715956e-002
1.650767e+003, 3.651549e-002
1.652696e+003, 3.609415e-002
1.654624e+003, 3.595757e-002
1.656553e+003, 3.549145e-002
1.658481e+003, 3.469990e-002
1.660410e+003, 3.434842e-002
1.662338e+003, 3.443736e-002
1.664267e+003, 3.462446e-002
1.666195e+003, 3.406302e-002
1.668124e+003, 3.270309e-002
1.670052e+003, 3.176158e-002
1.671981e+003, 3.129916e-002
1.673909e+003, 3.106639e-002
1.675838e+003, 3.049036e-002
1.677766e+003, 2.945061e-002
1.679694e+003, 2.873092e-002
1.681623e+003, 2.825075e-002
1.683551e+003, 2.721438e-002
1.685480e+003, 2.623540e-002
1.687408e+003, 2.476585e-002
1.689337e+003, 2.351739e-002
1.691265e+003, 2.304250e-002
1.693194e+003, 2.274842e-002
1.695122e+003, 2.210947e-002
1.697051e+003, 2.092012e-002
1.698979e+003, 1.976205e-002
1.700908e+003, 1.977273e-002
1.702836e+003, 1.958075e-002
1.704765e+003, 1.889246e-002
1.706693e+003, 1.763295e-002
1.708621e+003, 1.683771e-002
1.710550e+003, 1.684025e-002
1.712478e+003, 1.675030e-002
1.714407e+003, 1.627815e-002
1.716335e+003, 1.614233e-002
1.718264e+003, 1.634660e-002
1.720192e+003, 1.595038e-002
1.722121e+003, 1.552374e-002
1.724049e+003, 1.568245e-002
1.725978e+003, 1.563138e-002
1.727906e+003, 1.516285e-002
1.729835e+003, 1.449434e-002
1.731763e+003, 1.389190e-002
1.733692e+003, 1.285174e-002
1.735620e+003, 1.268646e-002
1.737548e+003, 1.242742e-002
1.739477e+003, 1.144596e-002
1.741405e+003, 1.126442e-002
1.743334e+003, 1.130088e-002
1.745262e+003, 1.092496e-002
1.747191e+003, 1.023211e-002
1.749119e+003, 9.693776e-003
1.751048e+003, 9.090094e-003
1.752976e+003, 8.824880e-003
1.754905e+003, 8.662662e-003
1.756833e+003, 8.002815e-003
1.758762e+003, 7.838603e-003
1.760690e+003, 8.529622e-003
1.762619e+003, 8.405682e-003
1.764547e+003, 7.989389e-003
1.766475e+003, 7.755137e-003
1.768404e+003, 7.425645e-003
1.770332e+003, 7.924369e-003
1.772261e+003, 7.728456e-003
1.774189e+003, 7.398657e-003
1.776118e+003, 7.879511e-003
1.778046e+003, 8.134930e-003
1.779975e+003, 7.783125e-003
1.781903e+003, 7.364539e-003
1.783832e+003, 7.442506e-003
1.785760e+003, 7.869985e-003
1.787689e+003, 8.094048e-003
1.789617e+003, 7.574717e-003
1.791546e+003, 7.435495e-003
1.793474e+003, 7.634548e-003
1.795402e+003, 7.326286e-003
1.797331e+003, 6.864978e-003
1.799259e+003, 6.969242e-003
1.801188e+003, 7.418274e-003
1.803116e+003, 7.546492e-003
1.805045e+003, 7.316249e-003
1.806973e+003, 7.212936e-003
1.808902e+003, 8.048205e-003
1.810830e+003, 8.867787e-003
1.812759e+003, 8.919936e-003
1.814687e+003, 8.842223e-003
1.816616e+003, 8.593509e-003
1.818544e+003, 8.531364e-003
1.820473e+003, 8.876881e-003
1.822401e+003, 8.646028e-003
1.824329e+003, 8.417794e-003
1.826258e+003, 9.012494e-003
1.828186e+003, 9.873594e-003
1.830115e+003, 9.875415e-003
1.832043e+003, 9.689719e-003
1.833972e+003, 9.399001e-003
1.835900e+003, 1.006549e-002
1.837829e+003, 9.312792e-003
1.839757e+003, 8.666807e-003
1.841686e+003, 9.529986e-003
1.843614e+003, 9.929950e-003
1.845543e+003, 9.805005e-003
1.847471e+003, 9.371003e-003
1.849400e+003, 9.113123e-003
1.851328e+003, 9.728074e-003
1.853256e+003, 1.021202e-002
1.855185e+003, 1.026448e-002
1.857113e+003, 9.979731e-003
1.859042e+003, 9.290793e-003
1.860970e+003, 9.584039e-003
1.862899e+003, 9.891530e-003
1.864827e+003, 9.103345e-003
1.866756e+003, 9.070600e-003
1.868684e+003, 1.019388e-002
1.870613e+003, 9.473586e-003
1.872541e+003, 8.534221e-003
1.874470e+003, 9.091438e-003
1.876398e+003, 8.830365e-003
1.878327e+003, 7.872450e-003
1.880255e+003, 7.274735e-003
1.882183e+003, 7.087349e-003
1.884112e+003, 7.702452e-003
1.886040e+003, 8.641152e-003
1.887969e+003, 8.043683e-003
1.889897e+003, 8.337275e-003
1.891826e+003, 8.793478e-003
1.893754e+003, 7.638949e-003
1.895683e+003, 7.152373e-003
1.897611e+003, 7.152608e-003
1.899540e+003, 7.006758e-003
1.901468e+003, 6.915518e-003
1.903397e+003, 6.610389e-003
1.905325e+003, 7.923077e-003
1.907254e+003, 8.787840e-003
1.909182e+003, 7.074991e-003
1.911110e+003, 6.930728e-003
1.913039e+003, 9.003439e-003
1.914967e+003, 8.419350e-003
1.916896e+003, 7.200888e-003
1.918824e+003, 7.265083e-003
1.920753e+003, 6.342330e-003
1.922681e+003, 5.972038e-003
1.924610e+003, 8.320356e-003
1.926538e+003, 1.002720e-002
1.928467e+003, 9.167905e-003
1.930395e+003, 7.828454e-003
1.932324e+003, 9.353910e-003
1.934252e+003, 1.021889e-002
1.936181e+003, 9.538865e-003
1.938109e+003, 8.955711e-003
1.940037e+003, 1.032780e-002
1.941966e+003, 1.223782e-002
1.943894e+003, 1.308341e-002
1.945823e+003, 1.165124e-002
1.947751e+003, 9.445494e-003
1.949680e+003, 1.122894e-002
1.951608e+003, 1.199218e-002
1.953537e+003, 1.041067e-002
1.955465e+003, 9.473925e-003
1.957394e+003, 9.066323e-003
1.959322e+003, 1.048435e-002
1.961251e+003, 1.099963e-002
1.963179e+003, 8.285753e-003
1.965108e+003, 6.118179e-003
1.967036e+003, 9.956047e-003
1.968964e+003, 1.453043e-002
1.970893e+003, 1.398822e-002
1.972821e+003, 1.299839e-002
1.974750e+003, 1.383657e-002
1.976678e+003, 1.346978e-002
1.978607e+003, 1.289940e-002
1.980535e+003, 1.434967e-002
1.982464e+003, 1.551812e-002
1.984392e+003, 1.487484e-002
1.986321e+003, 1.331174e-002
1.988249e+003, 1.295872e-002
1.990178e+003, 1.244958e-002
1.992106e+003, 1.128756e-002
1.994035e+003, 1.049734e-002
1.995963e+003, 8.059910e-003
1.997891e+003, 8.954740e-003
1.999820e+003, 1.089475e-002
2.001748e+003, 9.637532e-003
2.003677e+003, 1.133489e-002
2.005605e+003, 1.283213e-002
2.007534e+003, 9.269520e-003
2.009462e+003, 9.933367e-003
2.011391e+003, 1.054965e-002
2.013319e+003, 8.374247e-003
2.015248e+003, 7.949228e-003
2.017176e+003, 6.306679e-003
2.019105e+003, 4.920977e-003
2.021033e+003, 7.437414e-003
2.022962e+003, 1.034159e-002
2.024890e+003, 1.232456e-002
2.026818e+003, 9.565403e-003
2.028747e+003, 6.798772e-003
2.030675e+003, 1.321673e-002
2.032604e+003, 1.491507e-002
2.034532e+003, 1.127010e-002
2.036461e+003, 1.556665e-002
2.038389e+003, 1.847571e-002
2.040318e+003, 1.813762e-002
2.042246e+003, 1.554792e-002
2.044175e+003, 1.394947e-002
2.046103e+003, 1.201493e-002
2.048031e+003, 1.185383e-002
2.049960e+003, 1.082083e-002
2.051888e+003, 9.803936e-003
2.053817e+003, 9.766707e-003
2.055745e+003, 8.821161e-003
2.057674e+003, 7.967292e-003
2.059602e+003, 8.427660e-003
2.061531e+003, 1.128206e-002
2.063459e+003, 1.211512e-002
2.065388e+003, 1.280773e-002
2.067316e+003, 1.379202e-002
2.069245e+003, 1.285850e-002
2.071173e+003, 1.123448e-002
2.073102e+003, 9.651835e-003
2.075030e+003, 9.810240e-003
2.076958e+003, 1.076783e-002
2.078887e+003, 1.198942e-002
2.080815e+003, 1.221311e-002
2.082744e+003, 1.111963e-002
2.084672e+003, 1.070451e-002
2.086601e+003, 1.074380e-002
2.088529e+003, 1.185578e-002
2.090458e+003, 1.107709e-002
2.092386e+003, 1.190163e-002
2.094315e+003, 1.359388e-002
2.096243e+003, 1.349895e-002
2.098172e+003, 1.568118e-002
2.100100e+003, 1.598583e-002
2.102029e+003, 1.284902e-002
2.103957e+003, 1.087754e-002
2.105885e+003, 9.470154e-003
2.107814e+003, 9.859897e-003
2.109742e+003, 1.264240e-002
2.111671e+003, 1.280748e-002
2.113599e+003, 1.114350e-002
2.115528e+003, 1.078713e-002
2.117456e+003, 1.047658e-002
2.119385e+003, 1.074719e-002
2.121313e+003, 1.066076e-002
2.123242e+003, 1.011548e-002
2.125170e+003, 8.633477e-003
2.127099e+003, 7.943247e-003
2.129027e+003, 9.082822e-003
2.130956e+003, 8.679288e-003
2.132884e+003, 1.066686e-002
2.134813e+003, 1.280719e-002
2.136741e+003, 9.568207e-003
2.138669e+003, 8.029914e-003
2.140598e+003, 7.836500e-003
2.142526e+003, 7.957111e-003
2.144455e+003, 9.074016e-003
2.146383e+003, 1.144176e-002
2.148312e+003, 1.269535e-002
2.150240e+003, 1.284008e-002
2.152169e+003, 1.295715e-002
2.154097e+003, 1.395909e-002
2.156026e+003, 1.248954e-002
2.157954e+003, 9.888117e-003
2.159883e+003, 1.643360e-002
2.161811e+003, 2.070334e-002
2.163740e+003, 1.665660e-002
2.165668e+003, 1.325505e-002
2.167596e+003, 1.045686e-002
2.169525e+003, 1.117237e-002
2.171453e+003, 1.444563e-002
2.173382e+003, 1.586848e-002
2.175310e+003, 1.598577e-002
2.177239e+003, 1.215910e-002
2.179167e+003, 9.936796e-003
2.181096e+003, 1.364468e-002
2.183024e+003, 1.651148e-002
2.184953e+003, 1.758579e-002
2.186881e+003, 1.532911e-002
2.188810e+003, 1.232356e-002
2.190738e+003, 1.040439e-002
2.192667e+003, 9.841101e-003
2.194595e+003, 1.156737e-002
2.196523e+003, 1.133262e-002
2.198452e+003, 1.160952e-002
2.200380e+003, 1.377376e-002
2.202309e+003, 1.264946e-002
2.204237e+003, 9.491531e-003
2.206166e+003, 1.052437e-002
2.208094e+003, 1.252346e-002
2.210023e+003, 1.214157e-002
2.211951e+003, 1.258803e-002
2.213880e+003, 1.332563e-002
2.215808e+003, 1.253850e-002
2.217737e+003, 1.157726e-002
2.219665e+003, 1.127996e-002
2.221594e+003, 8.819623e-003
2.223522e+003, 8.894792e-003
2.225450e+003, 1.079464e-002
2.227379e+003, 9.020390e-003
2.229307e+003, 1.050998e-002
2.231236e+003, 1.260318e-002
2.233164e+003, 1.215706e-002
2.235093e+003, 1.137911e-002
2.237021e+003, 9.274784e-003
2.238950e+003, 9.183247e-003
2.240878e+003, 1.160188e-002
2.242807e+003, 1.333874e-002
2.244735e+003, 1.354145e-002
2.246664e+003, 1.067098e-002
2.248592e+003, 7.789707e-003
2.250521e+003, 9.619057e-003
2.252449e+003, 1.250164e-002
2.254377e+003, 1.440227e-002
2.256306e+003, 1.599256e-002
2.258234e+003, 1.419314e-002
2.260163e+003, 1.312603e-002
2.262091e+003, 1.312918e-002
2.264020e+003, 1.101085e-002
2.265948e+003, 1.089185e-002
2.267877e+003, 1.305310e-002
2.269805e+003, 1.309484e-002
2.271734e+003, 1.356153e-002
2.273662e+003, 1.585817e-002
2.275591e+003, 1.575715e-002
2.277519e+003, 1.470268e-002
2.279448e+003, 1.385287e-002
2.281376e+003, 1.507013e-002
2.283304e+003, 1.585300e-002
2.285233e+003, 1.358799e-002
2.287161e+003, 1.383688e-002
2.289090e+003, 1.379102e-002
2.291018e+003, 1.402557e-002
2.292947e+003, 1.463156e-002
2.294875e+003, 1.448870e-002
2.296804e+003, 1.378348e-002
2.298732e+003, 1.298436e-002
2.300661e+003, 1.312091e-002
2.302589e+003, 1.416745e-002
2.304518e+003, 1.418435e-002
2.306446e+003, 1.356833e-002
2.308375e+003, 1.396661e-002
2.310303e+003, 1.439032e-002
2.312231e+003, 1.426400e-002
2.314160e+003, 1.463380e-002
2.316088e+003, 1.505854e-002
2.318017e+003, 1.354827e-002
2.319945e+003, 1.299142e-002
2.321874e+003, 1.435469e-002
2.323802e+003, 1.468204e-002
2.325731e+003, 1.418549e-002
2.327659e+003, 1.343830e-002
2.329588e+003, 1.303056e-002
2.331516e+003, 1.254221e-002
2.333445e+003, 1.268896e-002
2.335373e+003, 1.332938e-002
2.337302e+003, 1.336974e-002
2.339230e+003, 1.390945e-002
2.341158e+003, 1.386532e-002
2.343087e+003, 1.314877e-002
2.345015e+003, 1.300006e-002
2.346944e+003, 1.341292e-002
2.348872e+003, 1.433224e-002
2.350801e+003, 1.354988e-002
2.352729e+003, 1.187887e-002
2.354658e+003, 1.149924e-002
2.356586e+003, 1.165602e-002
2.358515e+003, 1.296837e-002
2.360443e+003, 1.408396e-002
2.362372e+003, 1.454219e-002
2.364300e+003, 1.367381e-002
2.366229e+003, 1.243583e-002
2.368157e+003, 1.270571e-002
2.370085e+003, 1.325168e-002
2.372014e+003, 1.300940e-002
2.373942e+003, 1.311685e-002
2.375871e+003, 1.362857e-002
2.377799e+003, 1.366749e-002
2.379728e+003, 1.439353e-002
2.381656e+003, 1.379938e-002
2.383585e+003, 1.324996e-002
2.385513e+003, 1.377231e-002
2.387442e+003, 1.491397e-002
2.389370e+003, 1.512892e-002
2.391299e+003, 1.502335e-002
2.393227e+003, 1.451708e-002
2.395156e+003, 1.484180e-002
2.397084e+003, 1.503391e-002
2.399012e+003, 1.343910e-002
2.400941e+003, 1.352912e-002
2.402869e+003, 1.587963e-002
2.404798e+003, 1.563732e-002
2.406726e+003, 1.365544e-002
2.408655e+003, 1.423173e-002
2.410583e+003, 1.597619e-002
2.412512e+003, 1.674977e-002
2.414440e+003, 1.679258e-002
2.416369e+003, 1.614616e-002
2.418297e+003, 1.559538e-002
2.420226e+003, 1.563329e-002
2.422154e+003, 1.461361e-002
2.424083e+003, 1.460740e-002
2.426011e+003, 1.546940e-002
2.427939e+003, 1.593464e-002
2.429868e+003, 1.610956e-002
2.431796e+003, 1.576495e-002
2.433725e+003, 1.574758e-002
2.435653e+003, 1.499591e-002
2.437582e+003, 1.410361e-002
2.439510e+003, 1.452057e-002
2.441439e+003, 1.493931e-002
2.443367e+003, 1.515549e-002
2.445296e+003, 1.480260e-002
2.447224e+003, 1.557661e-002
2.449153e+003, 1.670768e-002
2.451081e+003, 1.671069e-002
2.453010e+003, 1.520500e-002
2.454938e+003, 1.505771e-002
2.456866e+003, 1.713142e-002
2.458795e+003, 1.795990e-002
2.460723e+003, 1.743102e-002
2.462652e+003, 1.674664e-002
2.464580e+003, 1.609835e-002
2.466509e+003, 1.638642e-002
2.468437e+003, 1.610087e-002
2.470366e+003, 1.597528e-002
2.472294e+003, 1.619422e-002
2.474223e+003, 1.596985e-002
2.476151e+003, 1.712575e-002
2.478080e+003, 1.714034e-002
2.480008e+003, 1.685982e-002
2.481937e+003, 1.720645e-002
2.483865e+003, 1.614578e-002
2.485793e+003, 1.612663e-002
2.487722e+003, 1.703929e-002
2.489650e+003, 1.732783e-002
2.491579e+003, 1.670756e-002
2.493507e+003, 1.738137e-002
2.495436e+003, 1.896093e-002
2.497364e+003, 1.909609e-002
2.499293e+003, 1.845911e-002
2.501221e+003, 1.770610e-002
2.503150e+003, 1.725939e-002
2.505078e+003, 1.777626e-002
2.507007e+003, 1.632749e-002
2.508935e+003, 1.652217e-002
2.510864e+003, 1.871315e-002
2.512792e+003, 1.933448e-002
2.514720e+003, 2.052927e-002
2.516649e+003, 2.037407e-002
2.518577e+003, 1.947099e-002
2.520506e+003, 2.086000e-002
2.522434e+003, 2.211894e-002
2.524363e+003, 2.167669e-002
2.526291e+003, 1.988524e-002
2.528220e+003, 1.927116e-002
2.530148e+003, 2.014424e-002
2.532077e+003, 2.146605e-002
2.534005e+003, 2.204547e-002
2.535934e+003, 2.268488e-002
2.537862e+003, 2.220240e-002
2.539791e+003, 2.175612e-002
2.541719e+003, 2.235490e-002
2.543647e+003, 2.347544e-002
2.545576e+003, 2.291631e-002
2.547504e+003, 2.083432e-002
2.549433e+003, 1.988858e-002
2.551361e+003, 2.022858e-002
2.553290e+003, 2.106700e-002
2.555218e+003, 2.167950e-002
2.557147e+003, 2.132017e-002
2.559075e+003, 2.045599e-002
2.561004e+003, 2.078191e-002
2.562932e+003, 2.151575e-002
2.564861e+003, 2.313122e-002
2.566789e+003, 2.472426e-002
2.568718e+003, 2.552743e-002
2.570646e+003, 2.528248e-002
2.572574e+003, 2.449347e-002
2.574503e+003, 2.441976e-002
2.576431e+003, 2.316916e-002
2.578360e+003, 2.271361e-002
2.580288e+003, 2.479468e-002
2.582217e+003, 2.604621e-002
2.584145e+003, 2.603937e-002
2.586074e+003, 2.588009e-002
2.588002e+003, 2.560634e-002
2.589931e+003, 2.457355e-002
2.591859e+003, 2.348186e-002
2.593788e+003, 2.308319e-002
2.595716e+003, 2.375306e-002
2.597645e+003, 2.387919e-002
2.599573e+003, 2.366230e-002
2.601501e+003, 2.363056e-002
2.603430e+003, 2.439573e-002
2.605358e+003, 2.545700e-002
2.607287e+003, 2.581730e-002
2.609215e+003, 2.536242e-002
2.611144e+003, 2.564113e-002
2.613072e+003, 2.602430e-002
2.615001e+003, 2.614901e-002
2.616929e+003, 2.658344e-002
2.618858e+003, 2.603220e-002
2.620786e+003, 2.539648e-002
2.622715e+003, 2.535945e-002
2.624643e+003, 2.614398e-002
2.626572e+003, 2.705393e-002
2.628500e+003, 2.754647e-002
2.630428e+003, 2.751534e-002
2.632357e+003, 2.742982e-002
2.634285e+003, 2.747522e-002
2.636214e+003, 2.659605e-002
2.638142e+003, 2.563466e-002
2.640071e+003, 2.583250e-002
2.641999e+003, 2.700578e-002
2.643928e+003, 2.733371e-002
2.645856e+003, 2.727743e-002
2.647785e+003, 2.715088e-002
2.649713e+003, 2.687315e-002
2.651642e+003, 2.678218e-002
2.653570e+003, 2.623746e-002
2.655499e+003, 2.634240e-002
2.657427e+003, 2.723867e-002
2.659355e+003, 2.702046e-002
2.661284e+003, 2.593716e-002
2.663212e+003, 2.491761e-002
2.665141e+003, 2.474682e-002
2.667069e+003, 2.554907e-002
2.668998e+003, 2.631247e-002
2.670926e+003, 2.663208e-002
2.672855e+003, 2.612076e-002
2.674783e+003, 2.621213e-002
2.676712e+003, 2.732111e-002
2.678640e+003, 2.722885e-002
2.680569e+003, 2.605617e-002
2.682497e+003, 2.557747e-002
2.684426e+003, 2.732390e-002
2.686354e+003, 2.845856e-002
2.688282e+003, 2.808576e-002
2.690211e+003, 2.705770e-002
2.692139e+003, 2.631534e-002
2.694068e+003, 2.806281e-002
2.695996e+003, 2.876091e-002
2.697925e+003, 2.712852e-002
2.699853e+003, 2.661739e-002
2.701782e+003, 2.771714e-002
2.703710e+003, 2.878004e-002
2.705639e+003, 2.883336e-002
2.707567e+003, 2.816447e-002
2.709496e+003, 2.804660e-002
2.711424e+003, 2.926686e-002
2.713353e+003, 2.982615e-002
2.715281e+003, 2.958735e-002
2.717209e+003, 2.830156e-002
2.719138e+003, 2.871899e-002
2.721066e+003, 2.940782e-002
2.722995e+003, 2.932747e-002
2.724923e+003, 2.928087e-002
2.726852e+003, 2.904082e-002
2.728780e+003, 2.912316e-002
2.730709e+003, 2.955461e-002
2.732637e+003, 2.993069e-002
2.734566e+003, 3.009334e-002
2.736494e+003, 3.104389e-002
2.738423e+003, 3.077186e-002
2.740351e+003, 3.082121e-002
2.742280e+003, 3.209884e-002
2.744208e+003, 3.208527e-002
2.746136e+003, 3.080560e-002
2.748065e+003, 3.129245e-002
2.749993e+003, 3.240707e-002
2.751922e+003, 3.271456e-002
2.753850e+003, 3.221563e-002
2.755779e+003, 3.101140e-002
2.757707e+003, 3.056949e-002
2.759636e+003, 3.166331e-002
2.761564e+003, 3.385665e-002
2.763493e+003, 3.404551e-002
2.765421e+003, 3.218985e-002
2.767350e+003, 3.300672e-002
2.769278e+003, 3.368820e-002
2.771207e+003, 3.283294e-002
2.773135e+003, 3.270348e-002
2.775063e+003, 3.291917e-002
2.776992e+003, 3.407892e-002
2.778920e+003, 3.449364e-002
2.780849e+003, 3.398380e-002
2.782777e+003, 3.411795e-002
2.784706e+003, 3.650214e-002
2.786634e+003, 3.746713e-002
2.788563e+003, 3.640167e-002
2.790491e+003, 3.667403e-002
2.792420e+003, 3.671235e-002
2.794348e+003, 3.532496e-002
2.796277e+003, 3.535945e-002
2.798205e+003, 3.693626e-002
2.800134e+003, 3.799366e-002
2.802062e+003, 3.746648e-002
2.803990e+003, 3.580034e-002
2.805919e+003, 3.614125e-002
2.807847e+003, 3.745068e-002
2.809776e+003, 3.737829e-002
2.811704e+003, 3.786512e-002
2.813633e+003, 3.902779e-002
2.815561e+003, 3.902853e-002
2.817490e+003, 3.929326e-002
2.819418e+003, 4.034439e-002
2.821347e+003, 4.047884e-002
2.823275e+003, 4.015211e-002
2.825204e+003, 4.001027e-002
2.827132e+003, 3.970413e-002
2.829061e+003, 3.982183e-002
2.830989e+003, 4.064055e-002
2.832917e+003, 4.149979e-002
2.834846e+003, 4.192283e-002
2.836774e+003, 4.307977e-002
2.838703e+003, 4.421159e-002
2.840631e+003, 4.430279e-002
2.842560e+003, 4.427322e-002
2.844488e+003, 4.451360e-002
2.846417e+003, 4.403605e-002
2.848345e+003, 4.450185e-002
2.850274e+003, 4.578652e-002
2.852202e+003, 4.763590e-002
2.854131e+003, 4.828770e-002
2.856059e+003, 4.775795e-002
2.857988e+003, 4.698868e-002
2.859916e+003, 4.726812e-002
2.861844e+003, 4.764944e-002
2.863773e+003, 4.779760e-002
2.865701e+003, 4.999980e-002
2.867630e+003, 5.119828e-002
2.869558e+003, 4.977941e-002
2.871487e+003, 4.831853e-002
2.873415e+003, 4.897841e-002
2.875344e+003, 5.121381e-002
2.877272e+003, 5.197783e-002
2.879201e+003, 5.225266e-002
2.881129e+003, 5.201019e-002
2.883058e+003, 5.106410e-002
2.884986e+003, 5.261423e-002
2.886915e+003, 5.381960e-002
2.888843e+003, 5.279798e-002
2.890771e+003, 5.326897e-002
2.892700e+003, 5.507267e-002
2.894628e+003, 5.560131e-002
2.896557e+003, 5.502357e-002
2.898485e+003, 5.577949e-002
2.900414e+003, 5.637667e-002
2.902342e+003, 5.627276e-002
2.904271e+003, 5.714269e-002
2.906199e+003, 5.838010e-002
2.908128e+003, 5.897040e-002
2.910056e+003, 5.963837e-002
2.911985e+003, 5.781753e-002
2.913913e+003, 5.714825e-002
2.915842e+003, 5.894916e-002
2.917770e+003, 6.051624e-002
2.919698e+003, 6.029639e-002
2.921627e+003, 5.998754e-002
2.923555e+003, 6.027111e-002
2.925484e+003, 6.200194e-002
2.927412e+003, 6.318178e-002
2.929341e+003, 6.259744e-002
2.931269e+003, 6.225622e-002
2.933198e+003, 6.231606e-002
2.935126e+003, 6.173716e-002
2.937055e+003, 6.150543e-002
2.938983e+003, 6.154663e-002
2.940912e+003, 6.116681e-002
2.942840e+003, 6.134932e-002
2.944769e+003, 6.080144e-002
2.946697e+003, 6.082774e-002
2.948625e+003, 6.130265e-002
2.950554e+003, 6.183839e-002
2.952482e+003, 6.175860e-002
2.954411e+003, 6.143207e-002
2.956339e+003, 6.214408e-002
2.958268e+003, 6.208802e-002
2.960196e+003, 6.064732e-002
2.962125e+003, 6.041905e-002
2.964053e+003, 6.110270e-002
2.965982e+003, 6.154257e-002
2.967910e+003, 6.203095e-002
2.969839e+003, 6.221644e-002
2.971767e+003, 6.099907e-002
2.973696e+003, 5.964869e-002
2.975624e+003, 5.893671e-002
2.977552e+003, 6.007956e-002
2.979481e+003, 6.096926e-002
2.981409e+003, 6.128792e-002
2.983338e+003, 6.178575e-002
2.985266e+003, 6.249449e-002
2.987195e+003, 6.223691e-002
2.989123e+003, 6.323329e-002
2.991052e+003, 6.346182e-002
2.992980e+003, 6.286766e-002
2.994909e+003, 6.183368e-002
2.996837e+003, 6.060807e-002
2.998766e+003, 6.052320e-002
3.000694e+003, 6.047297e-002
3.002623e+003, 6.117178e-002
3.004551e+003, 6.212494e-002
3.006479e+003, 6.172777e-002
3.008408e+003, 6.214647e-002
3.010336e+003, 6.176889e-002
3.012265e+003, 5.945091e-002
3.014193e+003, 5.969447e-002
3.016122e+003, 6.009316e-002
3.018050e+003, 5.845722e-002
3.019979e+003, 5.868365e-002
3.021907e+003, 5.953455e-002
3.023836e+003, 5.843760e-002
3.025764e+003, 5.964012e-002
3.027693e+003, 6.134634e-002
3.029621e+003, 5.957445e-002
3.031550e+003, 5.794391e-002
3.033478e+003, 5.849859e-002
3.035406e+003, 5.950607e-002
3.037335e+003, 5.948986e-002
3.039263e+003, 6.077998e-002
3.041192e+003, 6.130918e-002
3.043120e+003, 5.895272e-002
3.045049e+003, 5.732848e-002
3.046977e+003, 5.771445e-002
3.048906e+003, 5.815436e-002
3.050834e+003, 5.878521e-002
3.052763e+003, 5.897474e-002
3.054691e+003, 6.099609e-002
3.056620e+003, 6.223322e-002
3.058548e+003, 6.058477e-002
3.060477e+003, 5.783658e-002
3.062405e+003, 5.560016e-002
3.064333e+003, 5.564268e-002
3.066262e+003, 5.740260e-002
3.068190e+003, 5.798544e-002
3.070119e+003, 5.744380e-002
3.072047e+003, 5.814743e-002
3.073976e+003, 5.857965e-002
3.075904e+003, 5.701822e-002
3.077833e+003, 5.613208e-002
3.079761e+003, 5.596581e-002
3.081690e+003, 5.595965e-002
3.083618e+003, 5.690821e-002
3.085547e+003, 5.686390e-002
3.087475e+003, 5.733851e-002
3.089404e+003, 5.803698e-002
3.091332e+003, 5.812049e-002
3.093260e+003, 5.693185e-002
3.095189e+003, 5.754760e-002
3.097117e+003, 6.027875e-002
3.099046e+003, 5.993618e-002
3.100974e+003, 5.797252e-002
3.102903e+003, 5.753124e-002
3.104831e+003, 5.716584e-002
3.106760e+003, 5.685063e-002
3.108688e+003, 5.589616e-002
3.110617e+003, 5.631891e-002
3.112545e+003, 5.645930e-002
3.114474e+003, 5.619144e-002
3.116402e+003, 5.569223e-002
3.118331e+003, 5.498897e-002
3.120259e+003, 5.532599e-002
3.122188e+003, 5.581189e-002
3.124116e+003, 5.511072e-002
3.126044e+003, 5.552320e-002
3.127973e+003, 5.358877e-002
3.129901e+003, 5.198831e-002
3.131830e+003, 5.580996e-002
3.133758e+003, 5.786528e-002
3.135687e+003, 5.738528e-002
3.137615e+003, 5.841204e-002
3.139544e+003, 5.817619e-002
3.141472e+003, 5.691900e-002
3.143401e+003, 5.576995e-002
3.145329e+003, 5.540472e-002
3.147258e+003, 5.459796e-002
3.149186e+003, 5.611110e-002
3.151115e+003, 5.664214e-002
3.153043e+003, 5.577039e-002
3.154971e+003, 5.561093e-002
3.156900e+003, 5.584025e-002
3.158828e+003, 5.620886e-002
3.160757e+003, 5.551812e-002
3.162685e+003, 5.371111e-002
3.164614e+003, 5.516645e-002
3.166542e+003, 5.513596e-002
3.168471e+003, 5.604448e-002
3.170399e+003, 5.599347e-002
3.172328e+003, 5.481629e-002
3.174256e+003, 5.443094e-002
3.176185e+003, 5.223158e-002
3.178113e+003, 5.272414e-002
3.180042e+003, 5.481417e-002
3.181970e+003, 5.616697e-002
3.183898e+003, 5.616992e-002
3.185827e+003, 5.612160e-002
3.187755e+003, 5.552346e-002
3.189684e+003, 5.549974e-002
3.191612e+003, 5.670365e-002
3.193541e+003, 5.547488e-002
3.195469e+003, 5.512263e-002
3.197398e+003, 5.639637e-002
3.199326e+003, 5.541706e-002
3.201255e+003, 5.301064e-002
3.203183e+003, 5.238635e-002
3.205112e+003, 5.324762e-002
3.207040e+003, 5.383135e-002
3.208969e+003, 5.247622e-002
3.210897e+003, 5.148173e-002
3.212825e+003, 5.474130e-002
3.214754e+003, 5.535831e-002
3.216682e+003, 5.267120e-002
3.218611e+003, 5.164758e-002
3.220539e+003, 5.141656e-002
3.222468e+003, 5.148258e-002
3.224396e+003, 5.087144e-002
3.226325e+003, 5.015567e-002
3.228253e+003, 5.108925e-002
3.230182e+003, 5.271399e-002
3.232110e+003, 5.310588e-002
3.234039e+003, 5.328548e-002
3.235967e+003, 5.269998e-002
3.237896e+003, 4.954728e-002
3.239824e+003, 4.874228e-002
3.241752e+003, 5.006702e-002
3.243681e+003, 5.005426e-002
3.245609e+003, 4.948176e-002
3.247538e+003, 5.044083e-002
3.249466e+003, 5.095271e-002
3.251395e+003, 5.095826e-002
3.253323e+003, 4.962470e-002
3.255252e+003, 4.863084e-002
3.257180e+003, 4.968566e-002
3.259109e+003, 5.110614e-002
3.261037e+003, 5.127126e-002
3.262966e+003, 4.951123e-002
3.264894e+003, 4.897555e-002
3.266823e+003, 5.067272e-002
3.268751e+003, 4.953218e-002
3.270679e+003, 4.738288e-002
3.272608e+003, 4.785407e-002
3.274536e+003, 5.043473e-002
3.276465e+003, 5.057501e-002
3.278393e+003, 4.777004e-002
3.280322e+003, 4.783659e-002
3.282250e+003, 4.994058e-002
3.284179e+003, 5.030051e-002
3.286107e+003, 4.925961e-002
3.288036e+003, 4.870031e-002
3.289964e+003, 4.991040e-002
3.291893e+003, 4.952880e-002
3.293821e+003, 4.897052e-002
3.295750e+003, 4.978095e-002
3.297678e+003, 4.852344e-002
3.299606e+003, 4.692087e-002
3.301535e+003, 4.688273e-002
3.303463e+003, 4.731030e-002
3.305392e+003, 4.746323e-002
3.307320e+003, 4.875329e-002
3.309249e+003, 5.061951e-002
3.311177e+003, 5.109377e-002
3.313106e+003, 5.018190e-002
3.315034e+003, 4.799172e-002
3.316963e+003, 4.743911e-002
3.318891e+003, 4.861160e-002
3.320820e+003, 5.102800e-002
3.322748e+003, 4.922663e-002
3.324677e+003, 4.672256e-002
3.326605e+003, 4.729317e-002
3.328533e+003, 4.814246e-002
3.330462e+003, 4.827782e-002
3.332390e+003, 4.928963e-002
3.334319e+003, 4.916968e-002
3.336247e+003, 4.748965e-002
3.338176e+003, 4.761791e-002
3.340104e+003, 4.915058e-002
3.342033e+003, 4.948862e-002
3.343961e+003, 5.129602e-002
3.345890e+003, 5.259351e-002
3.347818e+003, 5.357554e-002
3.349747e+003, 5.155426e-002
3.351675e+003, 5.101496e-002
3.353604e+003, 5.146327e-002
3.355532e+003, 5.262288e-002
3.357460e+003, 5.322208e-002
3.359389e+003, 5.259590e-002
3.361317e+003, 5.556872e-002
3.363246e+003, 5.651634e-002
3.365174e+003, 5.522922e-002
3.367103e+003, 5.533364e-002
3.369031e+003, 5.484511e-002
3.370960e+003, 5.446317e-002
3.372888e+003, 5.561629e-002
3.374817e+003, 5.535984e-002
3.376745e+003, 5.556624e-002
3.378674e+003, 5.837823e-002
3.380602e+003, 5.945046e-002
3.382531e+003, 5.936242e-002
3.384459e+003, 5.951082e-002
3.386387e+003, 6.005997e-002
3.388316e+003, 6.068055e-002
3.390244e+003, 6.182431e-002
3.392173e+003, 6.386007e-002
3.394101e+003, 6.628180e-002
3.396030e+003, 6.871589e-002
3.397958e+003, 7.033202e-002
3.399887e+003, 6.938028e-002
3.401815e+003, 6.826256e-002
3.403744e+003, 6.931407e-002
3.405672e+003, 7.112027e-002
3.407601e+003, 7.134833e-002
3.409529e+003, 7.293744e-002
3.411458e+003, 7.557466e-002
3.413386e+003, 7.709132e-002
3.415314e+003, 7.735470e-002
3.417243e+003, 7.932770e-002
3.419171e+003, 8.096211e-002
3.421100e+003, 8.082092e-002
3.423028e+003, 8.441498e-002
3.424957e+003, 8.879917e-002
3.426885e+003, 9.151652e-002
3.428814e+003, 9.436608e-002
3.430742e+003, 9.643362e-002
3.432671e+003, 9.990769e-002
3.434599e+003, 1.029541e-001
3.436528e+003, 1.055679e-001
3.438456e+003, 1.100390e-001
3.440385e+003, 1.121328e-001
3.442313e+003, 1.117758e-001
3.444241e+003, 1.116261e-001
3.446170e+003, 1.122334e-001
3.448098e+003, 1.124880e-001
3.450027e+003, 1.129025e-001
3.451955e+003, 1.114810e-001
3.453884e+003, 1.083801e-001
3.455812e+003, 1.046562e-001
3.457741e+003, 1.003348e-001
3.459669e+003, 9.602865e-002
3.461598e+003, 9.324094e-002
3.463526e+003, 9.101262e-002
3.465455e+003, 8.674324e-002
3.467383e+003, 8.200616e-002
3.469312e+003, 7.807786e-002
3.471240e+003, 7.653476e-002
3.473168e+003, 7.523941e-002
3.475097e+003, 7.212890e-002
3.477025e+003, 7.009311e-002
3.478954e+003, 6.793415e-002
3.480882e+003, 6.522119e-002
3.482811e+003, 6.391472e-002
3.484739e+003, 6.131943e-002
3.486668e+003, 6.030888e-002
3.488596e+003, 5.898155e-002
3.490525e+003, 6.044227e-002
3.492453e+003, 6.195920e-002
3.494382e+003, 6.360454e-002
3.496310e+003, 6.558646e-002
3.498239e+003, 6.762175e-002
3.500167e+003, 6.814193e-002
3.502095e+003, 6.950407e-002
3.504024e+003, 7.297230e-002
3.505952e+003, 7.667290e-002
3.507881e+003, 7.773668e-002
3.509809e+003, 8.120875e-002
3.511738e+003, 8.450291e-002
3.513666e+003, 8.229662e-002
3.515595e+003, 8.048430e-002
3.517523e+003, 7.507627e-002
3.519452e+003, 6.922381e-002
3.521380e+003, 6.421777e-002
3.523309e+003, 5.762850e-002
3.525237e+003, 5.184719e-002
3.527166e+003, 4.795765e-002
3.529094e+003, 4.593379e-002
3.531022e+003, 4.328379e-002
3.532951e+003, 3.892960e-002
3.534879e+003, 3.396185e-002
3.536808e+003, 3.313439e-002
3.538736e+003, 2.997397e-002
3.540665e+003, 2.502316e-002
3.542593e+003, 2.616417e-002
3.544522e+003, 2.876830e-002
3.546450e+003, 2.685699e-002
3.548379e+003, 2.359311e-002
3.550307e+003, 2.391033e-002
3.552236e+003, 2.546866e-002
3.554164e+003, 2.481457e-002
3.556093e+003, 2.238517e-002
3.558021e+003, 1.906980e-002
3.559949e+003, 1.965477e-002
3.561878e+003, 2.178696e-002
3.563806e+003, 1.979901e-002
3.565735e+003, 1.967762e-002
3.567663e+003, 2.122986e-002
3.569592e+003, 2.062430e-002
3.571520e+003, 1.884972e-002
3.573449e+003, 1.717871e-002
3.575377e+003, 1.564855e-002
3.577306e+003, 1.827436e-002
3.579234e+003, 2.117704e-002
3.581163e+003, 2.106829e-002
3.583091e+003, 1.591978e-002
3.585020e+003, 1.471878e-002
3.586948e+003, 1.761907e-002
3.588876e+003, 2.005609e-002
3.590805e+003, 2.139627e-002
3.592733e+003, 2.070444e-002
3.594662e+003, 1.680060e-002
3.596590e+003, 1.595568e-002
3.598519e+003, 1.845608e-002
3.600447e+003, 1.764593e-002
3.602376e+003, 1.655508e-002
3.604304e+003, 1.864648e-002
3.606233e+003, 2.118877e-002
3.608161e+003, 1.967178e-002
3.610090e+003, 1.575492e-002
3.612018e+003, 1.758208e-002
3.613947e+003, 1.884785e-002
3.615875e+003, 1.451265e-002
3.617803e+003, 1.444998e-002
3.619732e+003, 1.413513e-002
3.621660e+003, 1.407716e-002
3.623589e+003, 1.565097e-002
3.625517e+003, 1.601762e-002
3.627446e+003, 1.561239e-002
3.629374e+003, 1.686669e-002
3.631303e+003, 1.862945e-002
3.633231e+003, 2.189087e-002
3.635160e+003, 2.173347e-002
3.637088e+003, 1.697027e-002
3.639017e+003, 1.552484e-002
3.640945e+003, 2.084133e-002
3.642874e+003, 2.839056e-002
3.644802e+003, 4.367784e-002
3.646730e+003, 7.162952e-002
3.648659e+003, 8.265331e-002
3.650587e+003, 5.518171e-002
3.652516e+003, 3.066130e-002
3.654444e+003, 2.076770e-002
3.656373e+003, 1.480199e-002
3.658301e+003, 1.043462e-002
3.660230e+003, 1.083289e-002
3.662158e+003, 1.491581e-002
3.664087e+003, 1.637998e-002
3.666015e+003, 1.771300e-002
3.667944e+003, 1.583064e-002
3.669872e+003, 1.281329e-002
3.671801e+003, 1.297787e-002
3.673729e+003, 1.548965e-002
3.675657e+003, 1.364252e-002
3.677586e+003, 1.307461e-002
3.679514e+003, 1.577198e-002
3.681443e+003, 1.283340e-002
3.683371e+003, 9.081343e-003
3.685300e+003, 1.061230e-002
3.687228e+003, 1.012721e-002
3.689157e+003, 9.790204e-003
3.691085e+003, 1.060987e-002
3.693014e+003, 1.798773e-002
3.694942e+003, 2.044124e-002
3.696871e+003, 1.480955e-002
3.698799e+003, 9.973264e-003
3.700728e+003, 6.629620e-003
3.702656e+003, 1.012724e-002
3.704584e+003, 1.675289e-002
3.706513e+003, 1.508754e-002
3.708441e+003, 9.816285e-003
3.710370e+003, 9.963889e-003
3.712298e+003, 1.169814e-002
3.714227e+003, 1.226848e-002
3.716155e+003, 1.249013e-002
3.718084e+003, 1.305998e-002
3.720012e+003, 1.344033e-002
3.721941e+003, 1.153053e-002
3.723869e+003, 9.619410e-003
3.725798e+003, 1.061509e-002
3.727726e+003, 1.163243e-002
3.729655e+003, 1.060704e-002
3.731583e+003, 7.975115e-003
3.733511e+003, 8.495357e-003
3.735440e+003, 1.231198e-002
3.737368e+003, 1.260623e-002
3.739297e+003, 1.353636e-002
3.741225e+003, 1.334048e-002
3.743154e+003, 1.093696e-002
3.745082e+003, 8.698080e-003
3.747011e+003, 8.322278e-003
3.748939e+003, 8.743379e-003
3.750868e+003, 8.475632e-003
3.752796e+003, 1.025449e-002
3.754725e+003, 1.265700e-002
3.756653e+003, 1.268595e-002
3.758582e+003, 1.136048e-002
3.760510e+003, 1.151914e-002
3.762438e+003, 1.124962e-002
3.764367e+003, 1.070966e-002
3.766295e+003, 8.440121e-003
3.768224e+003, 9.435459e-003
3.770152e+003, 1.321782e-002
3.772081e+003, 1.484129e-002
3.774009e+003, 1.542048e-002
3.775938e+003, 1.279634e-002
3.777866e+003, 9.989223e-003
3.779795e+003, 1.106659e-002
3.781723e+003, 1.022661e-002
3.783652e+003, 1.206923e-002
3.785580e+003, 1.210369e-002
3.787509e+003, 9.342637e-003
3.789437e+003, 8.766507e-003
3.791365e+003, 7.211469e-003
3.793294e+003, 5.501957e-003
3.795222e+003, 9.140615e-003
3.797151e+003, 1.348536e-002
3.799079e+003, 1.391691e-002
3.801008e+003, 1.024214e-002
3.802936e+003, 8.147111e-003
3.804865e+003, 1.154747e-002
3.806793e+003, 1.230214e-002
3.808722e+003, 7.417255e-003
3.810650e+003, 7.818289e-003
3.812579e+003, 1.128099e-002
3.814507e+003, 1.034732e-002
3.816436e+003, 1.035433e-002
3.818364e+003, 1.441529e-002
3.820292e+003, 1.491526e-002
3.822221e+003, 1.304228e-002
3.824149e+003, 7.004300e-003
3.826078e+003, 6.885110e-003
3.828006e+003, 1.201102e-002
3.829935e+003, 1.185564e-002
3.831863e+003, 7.058465e-003
3.833792e+003, 6.926289e-003
3.835720e+003, 1.114179e-002
3.837649e+003, 1.137092e-002
3.839577e+003, 9.286587e-003
3.841506e+003, 9.137025e-003
3.843434e+003, 9.105887e-003
3.845363e+003, 7.502304e-003
3.847291e+003, 8.665708e-003
3.849219e+003, 1.202709e-002
3.851148e+003, 1.572961e-002
3.853076e+003, 1.774397e-002
3.855005e+003, 1.300083e-002
3.856933e+003, 8.769900e-003
3.858862e+003, 9.162236e-003
3.860790e+003, 8.951769e-003
3.862719e+003, 8.298337e-003
3.864647e+003, 1.209452e-002
3.866576e+003, 1.369291e-002
3.868504e+003, 1.282612e-002
3.870433e+003, 1.127167e-002
3.872361e+003, 8.109016e-003
3.874290e+003, 7.163560e-003
3.876218e+003, 7.320364e-003
3.878146e+003, 8.426140e-003
3.880075e+003, 1.355330e-002
3.882003e+003, 1.356159e-002
3.883932e+003, 8.087729e-003
3.885860e+003, 8.841241e-003
3.887789e+003, 1.070840e-002
3.889717e+003, 9.064449e-003
3.891646e+003, 6.631660e-003
3.893574e+003, 8.206200e-003
3.895503e+003, 1.094139e-002
3.897431e+003, 8.450259e-003
3.899360e+003, 1.029409e-002
3.901288e+003, 1.049583e-002
3.903217e+003, 1.237441e-002
3.905145e+003, 1.289675e-002
3.907073e+003, 9.516621e-003
3.909002e+003, 8.662671e-003
3.910930e+003, 9.469852e-003
3.912859e+003, 9.012409e-003
3.914787e+003, 9.664424e-003
3.916716e+003, 1.055627e-002
3.918644e+003, 1.129588e-002
3.920573e+003, 1.131830e-002
3.922501e+003, 8.282056e-003
3.924430e+003, 5.505735e-003
3.926358e+003, 4.953573e-003
3.928287e+003, 6.010300e-003
3.930215e+003, 1.066905e-002
3.932144e+003, 1.376709e-002
3.934072e+003, 1.019846e-002
3.936000e+003, 7.124695e-003
3.937929e+003, 8.455453e-003
3.939857e+003, 8.632118e-003
3.941786e+003, 9.970414e-003
3.943714e+003, 1.292525e-002
3.945643e+003, 1.284173e-002
3.947571e+003, 8.503762e-003
3.949500e+003, 6.908536e-003
3.951428e+003, 7.384819e-003
3.953357e+003, 1.185976e-002
3.955285e+003, 1.444089e-002
3.957214e+003, 1.052202e-002
3.959142e+003, 9.547675e-003
3.961071e+003, 1.031097e-002
3.962999e+003, 8.682162e-003
3.964927e+003, 7.269801e-003
3.966856e+003, 1.072461e-002
3.968784e+003, 1.350117e-002
3.970713e+003, 1.176187e-002
3.972641e+003, 9.439931e-003
3.974570e+003, 7.787724e-003
3.976498e+003, 9.681217e-003
3.978427e+003, 9.160914e-003
3.980355e+003, 5.725113e-003
3.982284e+003, 6.568483e-003
3.984212e+003, 7.752248e-003
3.986141e+003, 6.569011e-003
3.988069e+003, 6.539824e-003
3.989998e+003, 6.144255e-003
3.991926e+003, 2.231749e-003
3.993854e+003, 3.503069e-003
3.995783e+003, 1.179201e-002
3.997711e+003, 1.311637e-002
3.999640e+003, 8.151845e-003
4.001568e+003, 0.000000e+000
##END=



