##NAMES=Magnesite
##RRUFFID=R050676
##IDEAL CHEMISTRY=MgCO_3_
##LOCALITY=Tyrol, Austria
##OWNER=RRUFF
##SOURCE=University of Arizona Mineral Museum
##DESCRIPTION=Brown rhombohedral crystals
##STATUS=The identification of this mineral has been confirmed by X-ray diffraction and chemical analysis
##URL=rruff.info/R050676
##MEASURED CHEMISTRY=(Mg_0.87_Fe^2+^_0.12_Ca_0.01_)_Î£=1_CO_3_; trace amounts of Mn and Cd; CO_2_ estimated by difference
3.991926e+002, 1.765949e-001
4.011211e+002, 1.690043e-001
4.030495e+002, 1.684008e-001
4.049780e+002, 1.652362e-001
4.069065e+002, 1.571758e-001
4.088349e+002, 1.541682e-001
4.107634e+002, 1.498018e-001
4.126919e+002, 1.379708e-001
4.146203e+002, 1.315155e-001
4.165488e+002, 1.265151e-001
4.184773e+002, 1.180545e-001
4.204057e+002, 1.150216e-001
4.223342e+002, 1.096559e-001
4.242627e+002, 1.048359e-001
4.261911e+002, 1.000319e-001
4.281196e+002, 9.639942e-002
4.300481e+002, 9.284364e-002
4.319765e+002, 8.863380e-002
4.339050e+002, 8.496691e-002
4.358335e+002, 8.299266e-002
4.377619e+002, 8.080070e-002
4.396904e+002, 7.586595e-002
4.416189e+002, 7.050117e-002
4.435473e+002, 6.696951e-002
4.454758e+002, 6.506140e-002
4.474043e+002, 6.243770e-002
4.493327e+002, 5.835783e-002
4.512612e+002, 5.434497e-002
4.531897e+002, 5.230752e-002
4.551181e+002, 5.098512e-002
4.570466e+002, 4.727399e-002
4.589751e+002, 4.338916e-002
4.609035e+002, 4.131093e-002
4.628320e+002, 3.902766e-002
4.647605e+002, 3.577042e-002
4.666889e+002, 3.487780e-002
4.686174e+002, 3.365130e-002
4.705459e+002, 3.221129e-002
4.724743e+002, 3.171695e-002
4.744028e+002, 2.970196e-002
4.763313e+002, 2.759410e-002
4.782597e+002, 2.650401e-002
4.801882e+002, 2.491340e-002
4.821167e+002, 2.387300e-002
4.840451e+002, 2.309154e-002
4.859736e+002, 2.215668e-002
4.879021e+002, 2.216207e-002
4.898305e+002, 2.178433e-002
4.917590e+002, 2.151709e-002
4.936875e+002, 2.041118e-002
4.956159e+002, 1.909315e-002
4.975444e+002, 1.802256e-002
4.994729e+002, 1.728524e-002
5.014013e+002, 1.753554e-002
5.033298e+002, 1.809513e-002
5.052583e+002, 1.828147e-002
5.071867e+002, 1.855189e-002
5.091152e+002, 1.812246e-002
5.110437e+002, 1.794799e-002
5.129721e+002, 1.748098e-002
5.149006e+002, 1.716111e-002
5.168290e+002, 1.670203e-002
5.187575e+002, 1.593527e-002
5.206860e+002, 1.660924e-002
5.226144e+002, 1.701544e-002
5.245429e+002, 1.610855e-002
5.264714e+002, 1.591273e-002
5.283998e+002, 1.606293e-002
5.303283e+002, 1.639972e-002
5.322568e+002, 1.643235e-002
5.341852e+002, 1.647272e-002
5.361137e+002, 1.659678e-002
5.380422e+002, 1.687557e-002
5.399706e+002, 1.687948e-002
5.418991e+002, 1.588602e-002
5.438276e+002, 1.516415e-002
5.457560e+002, 1.533884e-002
5.476845e+002, 1.579012e-002
5.496130e+002, 1.556079e-002
5.515414e+002, 1.542604e-002
5.534699e+002, 1.562440e-002
5.553984e+002, 1.548729e-002
5.573268e+002, 1.558364e-002
5.592553e+002, 1.568662e-002
5.611838e+002, 1.575688e-002
5.631122e+002, 1.641595e-002
5.650407e+002, 1.716448e-002
5.669692e+002, 1.731730e-002
5.688976e+002, 1.773320e-002
5.708261e+002, 1.787507e-002
5.727546e+002, 1.826810e-002
5.746830e+002, 1.802095e-002
5.766115e+002, 1.741461e-002
5.785400e+002, 1.742538e-002
5.804684e+002, 1.705668e-002
5.823969e+002, 1.641484e-002
5.843254e+002, 1.603197e-002
5.862538e+002, 1.547285e-002
5.881823e+002, 1.519591e-002
5.901108e+002, 1.582653e-002
5.920392e+002, 1.655000e-002
5.939677e+002, 1.658754e-002
5.958962e+002, 1.679051e-002
5.978246e+002, 1.699792e-002
5.997531e+002, 1.714312e-002
6.016816e+002, 1.741860e-002
6.036100e+002, 1.704649e-002
6.055385e+002, 1.676842e-002
6.074670e+002, 1.666775e-002
6.093954e+002, 1.573446e-002
6.113239e+002, 1.502002e-002
6.132524e+002, 1.521286e-002
6.151808e+002, 1.484267e-002
6.171093e+002, 1.444239e-002
6.190378e+002, 1.447908e-002
6.209662e+002, 1.456349e-002
6.228947e+002, 1.438070e-002
6.248232e+002, 1.436902e-002
6.267516e+002, 1.499086e-002
6.286801e+002, 1.480738e-002
6.306086e+002, 1.469475e-002
6.325370e+002, 1.466759e-002
6.344655e+002, 1.510231e-002
6.363940e+002, 1.509381e-002
6.383224e+002, 1.542326e-002
6.402509e+002, 1.609032e-002
6.421794e+002, 1.621845e-002
6.441078e+002, 1.629319e-002
6.460363e+002, 1.633496e-002
6.479648e+002, 1.601810e-002
6.498932e+002, 1.576140e-002
6.518217e+002, 1.579410e-002
6.537502e+002, 1.600354e-002
6.556786e+002, 1.581612e-002
6.576071e+002, 1.610550e-002
6.595356e+002, 1.647056e-002
6.614641e+002, 1.674622e-002
6.633925e+002, 1.727972e-002
6.653210e+002, 1.798373e-002
6.672495e+002, 1.828551e-002
6.691779e+002, 1.826518e-002
6.711064e+002, 1.816875e-002
6.730349e+002, 1.760005e-002
6.749633e+002, 1.728277e-002
6.768918e+002, 1.745605e-002
6.788203e+002, 1.720424e-002
6.807487e+002, 1.676114e-002
6.826772e+002, 1.678924e-002
6.846057e+002, 1.699478e-002
6.865341e+002, 1.727751e-002
6.884626e+002, 1.731463e-002
6.903911e+002, 1.751377e-002
6.923195e+002, 1.778437e-002
6.942480e+002, 1.762090e-002
6.961765e+002, 1.814375e-002
6.981049e+002, 1.828669e-002
7.000334e+002, 1.819922e-002
7.019619e+002, 1.851550e-002
7.038903e+002, 1.892978e-002
7.058188e+002, 1.948449e-002
7.077473e+002, 1.984618e-002
7.096757e+002, 2.043415e-002
7.116042e+002, 2.139555e-002
7.135327e+002, 2.212579e-002
7.154611e+002, 2.260202e-002
7.173896e+002, 2.303765e-002
7.193181e+002, 2.396536e-002
7.212465e+002, 2.517391e-002
7.231750e+002, 2.669442e-002
7.251035e+002, 2.827883e-002
7.270319e+002, 3.052693e-002
7.289604e+002, 3.322950e-002
7.308889e+002, 3.643635e-002
7.328173e+002, 4.129507e-002
7.347458e+002, 4.779607e-002
7.366743e+002, 5.651977e-002
7.386027e+002, 6.857734e-002
7.405312e+002, 8.592647e-002
7.424597e+002, 1.105418e-001
7.443881e+002, 1.371657e-001
7.463166e+002, 1.492353e-001
7.482451e+002, 1.311718e-001
7.501735e+002, 9.444031e-002
7.521020e+002, 6.158637e-002
7.540305e+002, 4.090089e-002
7.559589e+002, 2.976081e-002
7.578874e+002, 2.362335e-002
7.598159e+002, 1.963109e-002
7.617443e+002, 1.701741e-002
7.636728e+002, 1.558737e-002
7.656013e+002, 1.483627e-002
7.675297e+002, 1.423831e-002
7.694582e+002, 1.389271e-002
7.713867e+002, 1.392055e-002
7.733151e+002, 1.369444e-002
7.752436e+002, 1.339188e-002
7.771721e+002, 1.349671e-002
7.791005e+002, 1.378544e-002
7.810290e+002, 1.411449e-002
7.829575e+002, 1.442729e-002
7.848859e+002, 1.469210e-002
7.868144e+002, 1.467869e-002
7.887429e+002, 1.492567e-002
7.906713e+002, 1.528952e-002
7.925998e+002, 1.578999e-002
7.945283e+002, 1.588841e-002
7.964567e+002, 1.598410e-002
7.983852e+002, 1.618258e-002
8.003137e+002, 1.658748e-002
8.022421e+002, 1.692914e-002
8.041706e+002, 1.716276e-002
8.060991e+002, 1.745636e-002
8.080275e+002, 1.809008e-002
8.099560e+002, 1.880502e-002
8.118845e+002, 1.947177e-002
8.138129e+002, 2.004457e-002
8.157414e+002, 2.019783e-002
8.176699e+002, 2.050669e-002
8.195983e+002, 2.157096e-002
8.215268e+002, 2.221860e-002
8.234553e+002, 2.255294e-002
8.253837e+002, 2.315601e-002
8.273122e+002, 2.430925e-002
8.292407e+002, 2.585510e-002
8.311691e+002, 2.743969e-002
8.330976e+002, 2.828111e-002
8.350261e+002, 2.954266e-002
8.369545e+002, 3.165382e-002
8.388830e+002, 3.434161e-002
8.408115e+002, 3.709044e-002
8.427399e+002, 4.063385e-002
8.446684e+002, 4.509589e-002
8.465969e+002, 5.160368e-002
8.485253e+002, 5.927865e-002
8.504538e+002, 6.773639e-002
8.523823e+002, 7.505084e-002
8.543107e+002, 8.022900e-002
8.562392e+002, 8.231544e-002
8.581677e+002, 8.732917e-002
8.600961e+002, 1.012285e-001
8.620246e+002, 1.186540e-001
8.639531e+002, 1.390286e-001
8.658815e+002, 1.633530e-001
8.678100e+002, 1.921494e-001
8.697385e+002, 2.211978e-001
8.716669e+002, 2.451665e-001
8.735954e+002, 2.612948e-001
8.755239e+002, 2.702376e-001
8.774523e+002, 2.708517e-001
8.793808e+002, 2.652110e-001
8.813093e+002, 2.591043e-001
8.832377e+002, 2.508609e-001
8.851662e+002, 2.344731e-001
8.870947e+002, 2.105163e-001
8.890231e+002, 1.821804e-001
8.909516e+002, 1.529350e-001
8.928801e+002, 1.245403e-001
8.948085e+002, 9.786340e-002
8.967370e+002, 7.380289e-002
8.986655e+002, 5.378433e-002
9.005939e+002, 3.944803e-002
9.025224e+002, 3.065500e-002
9.044509e+002, 2.569765e-002
9.063793e+002, 2.353042e-002
9.083078e+002, 2.307660e-002
9.102363e+002, 2.330941e-002
9.121647e+002, 2.322878e-002
9.140932e+002, 2.331435e-002
9.160217e+002, 2.328961e-002
9.179501e+002, 2.306246e-002
9.198786e+002, 2.297574e-002
9.218071e+002, 2.303235e-002
9.237355e+002, 2.304929e-002
9.256640e+002, 2.333819e-002
9.275925e+002, 2.378514e-002
9.295209e+002, 2.413577e-002
9.314494e+002, 2.415980e-002
9.333779e+002, 2.427082e-002
9.353063e+002, 2.471853e-002
9.372348e+002, 2.553605e-002
9.391633e+002, 2.617169e-002
9.410917e+002, 2.669300e-002
9.430202e+002, 2.708859e-002
9.449487e+002, 2.731537e-002
9.468771e+002, 2.771953e-002
9.488056e+002, 2.809775e-002
9.507341e+002, 2.867421e-002
9.526625e+002, 2.928548e-002
9.545910e+002, 2.993621e-002
9.565195e+002, 3.026627e-002
9.584479e+002, 3.043843e-002
9.603764e+002, 3.102379e-002
9.623049e+002, 3.167876e-002
9.642333e+002, 3.183865e-002
9.661618e+002, 3.192019e-002
9.680903e+002, 3.236495e-002
9.700187e+002, 3.270895e-002
9.719472e+002, 3.296649e-002
9.738757e+002, 3.333076e-002
9.758041e+002, 3.360847e-002
9.777326e+002, 3.398713e-002
9.796611e+002, 3.479993e-002
9.815895e+002, 3.535633e-002
9.835180e+002, 3.591424e-002
9.854465e+002, 3.648780e-002
9.873749e+002, 3.688524e-002
9.893034e+002, 3.742978e-002
9.912319e+002, 3.811962e-002
9.931603e+002, 3.894160e-002
9.950888e+002, 3.947409e-002
9.970173e+002, 4.033188e-002
9.989457e+002, 4.149895e-002
1.000874e+003, 4.290442e-002
1.002803e+003, 4.399730e-002
1.004731e+003, 4.493709e-002
1.006660e+003, 4.626250e-002
1.008588e+003, 4.785034e-002
1.010517e+003, 4.963608e-002
1.012445e+003, 5.145488e-002
1.014373e+003, 5.333595e-002
1.016302e+003, 5.514964e-002
1.018230e+003, 5.641535e-002
1.020159e+003, 5.727404e-002
1.022087e+003, 5.745188e-002
1.024016e+003, 5.689188e-002
1.025944e+003, 5.641850e-002
1.027873e+003, 5.603576e-002
1.029801e+003, 5.527010e-002
1.031730e+003, 5.456927e-002
1.033658e+003, 5.402464e-002
1.035587e+003, 5.427152e-002
1.037515e+003, 5.487192e-002
1.039443e+003, 5.524643e-002
1.041372e+003, 5.546093e-002
1.043300e+003, 5.624991e-002
1.045229e+003, 5.689237e-002
1.047157e+003, 5.670631e-002
1.049086e+003, 5.637718e-002
1.051014e+003, 5.625489e-002
1.052943e+003, 5.563797e-002
1.054871e+003, 5.475983e-002
1.056800e+003, 5.433619e-002
1.058728e+003, 5.392172e-002
1.060657e+003, 5.366514e-002
1.062585e+003, 5.325732e-002
1.064514e+003, 5.295650e-002
1.066442e+003, 5.292438e-002
1.068370e+003, 5.266472e-002
1.070299e+003, 5.252345e-002
1.072227e+003, 5.251372e-002
1.074156e+003, 5.250858e-002
1.076084e+003, 5.242598e-002
1.078013e+003, 5.252106e-002
1.079941e+003, 5.259165e-002
1.081870e+003, 5.299756e-002
1.083798e+003, 5.370163e-002
1.085727e+003, 5.461619e-002
1.087655e+003, 5.548341e-002
1.089584e+003, 5.611610e-002
1.091512e+003, 5.637172e-002
1.093441e+003, 5.643088e-002
1.095369e+003, 5.632273e-002
1.097297e+003, 5.645615e-002
1.099226e+003, 5.622086e-002
1.101154e+003, 5.599363e-002
1.103083e+003, 5.589092e-002
1.105011e+003, 5.541095e-002
1.106940e+003, 5.476911e-002
1.108868e+003, 5.470307e-002
1.110797e+003, 5.492003e-002
1.112725e+003, 5.489942e-002
1.114654e+003, 5.497760e-002
1.116582e+003, 5.508937e-002
1.118511e+003, 5.520461e-002
1.120439e+003, 5.540687e-002
1.122368e+003, 5.593479e-002
1.124296e+003, 5.634871e-002
1.126224e+003, 5.688648e-002
1.128153e+003, 5.770687e-002
1.130081e+003, 5.819103e-002
1.132010e+003, 5.845679e-002
1.133938e+003, 5.873651e-002
1.135867e+003, 5.939367e-002
1.137795e+003, 5.998628e-002
1.139724e+003, 6.011546e-002
1.141652e+003, 6.067562e-002
1.143581e+003, 6.141736e-002
1.145509e+003, 6.181794e-002
1.147438e+003, 6.251357e-002
1.149366e+003, 6.292901e-002
1.151295e+003, 6.338740e-002
1.153223e+003, 6.419262e-002
1.155151e+003, 6.467298e-002
1.157080e+003, 6.543829e-002
1.159008e+003, 6.607426e-002
1.160937e+003, 6.667210e-002
1.162865e+003, 6.732438e-002
1.164794e+003, 6.780733e-002
1.166722e+003, 6.866439e-002
1.168651e+003, 6.951342e-002
1.170579e+003, 6.996096e-002
1.172508e+003, 7.117080e-002
1.174436e+003, 7.221226e-002
1.176365e+003, 7.326007e-002
1.178293e+003, 7.426963e-002
1.180222e+003, 7.494196e-002
1.182150e+003, 7.549158e-002
1.184078e+003, 7.605918e-002
1.186007e+003, 7.705039e-002
1.187935e+003, 7.821228e-002
1.189864e+003, 7.878773e-002
1.191792e+003, 7.937603e-002
1.193721e+003, 8.037437e-002
1.195649e+003, 8.157755e-002
1.197578e+003, 8.309456e-002
1.199506e+003, 8.436963e-002
1.201435e+003, 8.536939e-002
1.203363e+003, 8.630084e-002
1.205292e+003, 8.711056e-002
1.207220e+003, 8.808669e-002
1.209149e+003, 8.937987e-002
1.211077e+003, 9.069032e-002
1.213005e+003, 9.216084e-002
1.214934e+003, 9.312701e-002
1.216862e+003, 9.392163e-002
1.218791e+003, 9.510759e-002
1.220719e+003, 9.642066e-002
1.222648e+003, 9.744326e-002
1.224576e+003, 9.819368e-002
1.226505e+003, 9.941227e-002
1.228433e+003, 1.004262e-001
1.230362e+003, 1.015458e-001
1.232290e+003, 1.025051e-001
1.234219e+003, 1.037425e-001
1.236147e+003, 1.054899e-001
1.238076e+003, 1.067769e-001
1.240004e+003, 1.074979e-001
1.241932e+003, 1.084564e-001
1.243861e+003, 1.097597e-001
1.245789e+003, 1.111621e-001
1.247718e+003, 1.124898e-001
1.249646e+003, 1.138048e-001
1.251575e+003, 1.151556e-001
1.253503e+003, 1.163496e-001
1.255432e+003, 1.177372e-001
1.257360e+003, 1.192425e-001
1.259289e+003, 1.204431e-001
1.261217e+003, 1.219707e-001
1.263146e+003, 1.241836e-001
1.265074e+003, 1.261107e-001
1.267003e+003, 1.278854e-001
1.268931e+003, 1.298979e-001
1.270859e+003, 1.322490e-001
1.272788e+003, 1.343666e-001
1.274716e+003, 1.362643e-001
1.276645e+003, 1.384379e-001
1.278573e+003, 1.407750e-001
1.280502e+003, 1.430195e-001
1.282430e+003, 1.453781e-001
1.284359e+003, 1.474006e-001
1.286287e+003, 1.495902e-001
1.288216e+003, 1.523559e-001
1.290144e+003, 1.549577e-001
1.292073e+003, 1.573861e-001
1.294001e+003, 1.596510e-001
1.295930e+003, 1.620387e-001
1.297858e+003, 1.649853e-001
1.299786e+003, 1.679335e-001
1.301715e+003, 1.707221e-001
1.303643e+003, 1.736256e-001
1.305572e+003, 1.768701e-001
1.307500e+003, 1.802430e-001
1.309429e+003, 1.832967e-001
1.311357e+003, 1.864206e-001
1.313286e+003, 1.893979e-001
1.315214e+003, 1.926902e-001
1.317143e+003, 1.964818e-001
1.319071e+003, 2.001096e-001
1.321000e+003, 2.034142e-001
1.322928e+003, 2.069568e-001
1.324857e+003, 2.109572e-001
1.326785e+003, 2.152839e-001
1.328714e+003, 2.193400e-001
1.330642e+003, 2.232470e-001
1.332570e+003, 2.277711e-001
1.334499e+003, 2.325119e-001
1.336427e+003, 2.372845e-001
1.338356e+003, 2.419331e-001
1.340284e+003, 2.466124e-001
1.342213e+003, 2.514440e-001
1.344141e+003, 2.569237e-001
1.346070e+003, 2.623757e-001
1.347998e+003, 2.674798e-001
1.349927e+003, 2.729257e-001
1.351855e+003, 2.784914e-001
1.353784e+003, 2.842715e-001
1.355712e+003, 2.902122e-001
1.357641e+003, 2.962322e-001
1.359569e+003, 3.021523e-001
1.361497e+003, 3.081931e-001
1.363426e+003, 3.146825e-001
1.365354e+003, 3.208290e-001
1.367283e+003, 3.267515e-001
1.369211e+003, 3.329569e-001
1.371140e+003, 3.398135e-001
1.373068e+003, 3.467539e-001
1.374997e+003, 3.540308e-001
1.376925e+003, 3.613299e-001
1.378854e+003, 3.692562e-001
1.380782e+003, 3.774813e-001
1.382711e+003, 3.859930e-001
1.384639e+003, 3.948230e-001
1.386568e+003, 4.040709e-001
1.388496e+003, 4.140156e-001
1.390424e+003, 4.238399e-001
1.392353e+003, 4.333147e-001
1.394281e+003, 4.437171e-001
1.396210e+003, 4.537664e-001
1.398138e+003, 4.638458e-001
1.400067e+003, 4.742217e-001
1.401995e+003, 4.843780e-001
1.403924e+003, 4.945814e-001
1.405852e+003, 5.044243e-001
1.407781e+003, 5.134410e-001
1.409709e+003, 5.214984e-001
1.411638e+003, 5.275391e-001
1.413566e+003, 5.326200e-001
1.415495e+003, 5.366876e-001
1.417423e+003, 5.404401e-001
1.419351e+003, 5.448284e-001
1.421280e+003, 5.497213e-001
1.423208e+003, 5.546110e-001
1.425137e+003, 5.577928e-001
1.427065e+003, 5.585100e-001
1.428994e+003, 5.571110e-001
1.430922e+003, 5.535346e-001
1.432851e+003, 5.474913e-001
1.434779e+003, 5.398827e-001
1.436708e+003, 5.316367e-001
1.438636e+003, 5.229003e-001
1.440565e+003, 5.136729e-001
1.442493e+003, 5.041870e-001
1.444422e+003, 4.947156e-001
1.446350e+003, 4.855741e-001
1.448278e+003, 4.766622e-001
1.450207e+003, 4.673886e-001
1.452135e+003, 4.584379e-001
1.454064e+003, 4.499385e-001
1.455992e+003, 4.416702e-001
1.457921e+003, 4.332604e-001
1.459849e+003, 4.251089e-001
1.461778e+003, 4.170494e-001
1.463706e+003, 4.089724e-001
1.465635e+003, 4.010704e-001
1.467563e+003, 3.932806e-001
1.469492e+003, 3.851882e-001
1.471420e+003, 3.768669e-001
1.473349e+003, 3.689432e-001
1.475277e+003, 3.612220e-001
1.477205e+003, 3.530765e-001
1.479134e+003, 3.453769e-001
1.481062e+003, 3.376029e-001
1.482991e+003, 3.298363e-001
1.484919e+003, 3.219654e-001
1.486848e+003, 3.139925e-001
1.488776e+003, 3.065453e-001
1.490705e+003, 2.998741e-001
1.492633e+003, 2.928224e-001
1.494562e+003, 2.860885e-001
1.496490e+003, 2.792795e-001
1.498419e+003, 2.725235e-001
1.500347e+003, 2.660564e-001
1.502276e+003, 2.595113e-001
1.504204e+003, 2.525717e-001
1.506132e+003, 2.461724e-001
1.508061e+003, 2.397951e-001
1.509989e+003, 2.332831e-001
1.511918e+003, 2.268615e-001
1.513846e+003, 2.206632e-001
1.515775e+003, 2.143471e-001
1.517703e+003, 2.081921e-001
1.519632e+003, 2.021723e-001
1.521560e+003, 1.960277e-001
1.523489e+003, 1.898258e-001
1.525417e+003, 1.834631e-001
1.527346e+003, 1.773259e-001
1.529274e+003, 1.712827e-001
1.531203e+003, 1.653508e-001
1.533131e+003, 1.595498e-001
1.535059e+003, 1.538063e-001
1.536988e+003, 1.481870e-001
1.538916e+003, 1.423977e-001
1.540845e+003, 1.371255e-001
1.542773e+003, 1.321141e-001
1.544702e+003, 1.269483e-001
1.546630e+003, 1.218219e-001
1.548559e+003, 1.170662e-001
1.550487e+003, 1.119686e-001
1.552416e+003, 1.070409e-001
1.554344e+003, 1.023322e-001
1.556273e+003, 9.790596e-002
1.558201e+003, 9.315165e-002
1.560130e+003, 8.853724e-002
1.562058e+003, 8.443822e-002
1.563986e+003, 8.011224e-002
1.565915e+003, 7.555269e-002
1.567843e+003, 7.109626e-002
1.569772e+003, 6.659675e-002
1.571700e+003, 6.178946e-002
1.573629e+003, 5.691096e-002
1.575557e+003, 5.207522e-002
1.577486e+003, 4.710130e-002
1.579414e+003, 4.216890e-002
1.581343e+003, 3.707195e-002
1.583271e+003, 3.150234e-002
1.585200e+003, 2.565288e-002
1.587128e+003, 2.038726e-002
1.589057e+003, 1.647786e-002
1.590985e+003, 1.422991e-002
1.592913e+003, 1.295707e-002
1.594842e+003, 1.235562e-002
1.596770e+003, 1.201303e-002
1.598699e+003, 1.188052e-002
1.600627e+003, 1.171570e-002
1.602556e+003, 1.142958e-002
1.604484e+003, 1.126085e-002
1.606413e+003, 1.104264e-002
1.608341e+003, 1.098324e-002
1.610270e+003, 1.139218e-002
1.612198e+003, 1.127808e-002
1.614127e+003, 1.071340e-002
1.616055e+003, 1.030235e-002
1.617984e+003, 1.031187e-002
1.619912e+003, 1.074041e-002
1.621840e+003, 1.081830e-002
1.623769e+003, 1.080477e-002
1.625697e+003, 1.082045e-002
1.627626e+003, 1.035132e-002
1.629554e+003, 1.006696e-002
1.631483e+003, 9.829648e-003
1.633411e+003, 9.653940e-003
1.635340e+003, 9.102000e-003
1.637268e+003, 8.996692e-003
1.639197e+003, 8.756456e-003
1.641125e+003, 8.227691e-003
1.643054e+003, 8.023762e-003
1.644982e+003, 7.752888e-003
1.646911e+003, 7.233755e-003
1.648839e+003, 6.926233e-003
1.650767e+003, 6.427848e-003
1.652696e+003, 5.838148e-003
1.654624e+003, 5.895702e-003
1.656553e+003, 6.199924e-003
1.658481e+003, 5.995826e-003
1.660410e+003, 5.797844e-003
1.662338e+003, 6.068646e-003
1.664267e+003, 6.210440e-003
1.666195e+003, 6.052440e-003
1.668124e+003, 5.714522e-003
1.670052e+003, 5.606243e-003
1.671981e+003, 5.709476e-003
1.673909e+003, 5.836930e-003
1.675838e+003, 5.698414e-003
1.677766e+003, 5.453785e-003
1.679694e+003, 5.700984e-003
1.681623e+003, 6.091176e-003
1.683551e+003, 5.707046e-003
1.685480e+003, 5.619482e-003
1.687408e+003, 5.667718e-003
1.689337e+003, 5.341627e-003
1.691265e+003, 5.358054e-003
1.693194e+003, 5.130689e-003
1.695122e+003, 4.728342e-003
1.697051e+003, 4.743229e-003
1.698979e+003, 4.494611e-003
1.700908e+003, 5.124723e-003
1.702836e+003, 5.782314e-003
1.704765e+003, 5.439058e-003
1.706693e+003, 4.908837e-003
1.708621e+003, 4.733863e-003
1.710550e+003, 4.876114e-003
1.712478e+003, 4.808851e-003
1.714407e+003, 4.723822e-003
1.716335e+003, 4.251982e-003
1.718264e+003, 4.141507e-003
1.720192e+003, 4.282632e-003
1.722121e+003, 4.349760e-003
1.724049e+003, 4.424389e-003
1.725978e+003, 4.788453e-003
1.727906e+003, 4.625803e-003
1.729835e+003, 4.387231e-003
1.731763e+003, 3.859589e-003
1.733692e+003, 3.204556e-003
1.735620e+003, 3.703807e-003
1.737548e+003, 4.100749e-003
1.739477e+003, 3.571191e-003
1.741405e+003, 3.350421e-003
1.743334e+003, 3.854547e-003
1.745262e+003, 4.118896e-003
1.747191e+003, 4.035909e-003
1.749119e+003, 4.030809e-003
1.751048e+003, 3.550061e-003
1.752976e+003, 3.904531e-003
1.754905e+003, 4.141243e-003
1.756833e+003, 3.722812e-003
1.758762e+003, 3.958304e-003
1.760690e+003, 4.279141e-003
1.762619e+003, 4.174949e-003
1.764547e+003, 4.287574e-003
1.766475e+003, 3.893124e-003
1.768404e+003, 3.537507e-003
1.770332e+003, 3.939535e-003
1.772261e+003, 3.976290e-003
1.774189e+003, 4.086041e-003
1.776118e+003, 4.596550e-003
1.778046e+003, 4.454160e-003
1.779975e+003, 4.387397e-003
1.781903e+003, 4.738578e-003
1.783832e+003, 5.119103e-003
1.785760e+003, 5.685435e-003
1.787689e+003, 6.157193e-003
1.789617e+003, 5.827706e-003
1.791546e+003, 6.481975e-003
1.793474e+003, 6.903305e-003
1.795402e+003, 6.447882e-003
1.797331e+003, 6.144124e-003
1.799259e+003, 6.929604e-003
1.801188e+003, 7.629838e-003
1.803116e+003, 8.327159e-003
1.805045e+003, 8.821369e-003
1.806973e+003, 9.206354e-003
1.808902e+003, 1.004306e-002
1.810830e+003, 1.126145e-002
1.812759e+003, 1.191652e-002
1.814687e+003, 1.164081e-002
1.816616e+003, 1.182003e-002
1.818544e+003, 1.325479e-002
1.820473e+003, 1.394044e-002
1.822401e+003, 1.320627e-002
1.824329e+003, 1.268421e-002
1.826258e+003, 1.300038e-002
1.828186e+003, 1.341094e-002
1.830115e+003, 1.388412e-002
1.832043e+003, 1.377022e-002
1.833972e+003, 1.307104e-002
1.835900e+003, 1.250132e-002
1.837829e+003, 1.159245e-002
1.839757e+003, 1.047794e-002
1.841686e+003, 1.036589e-002
1.843614e+003, 9.675421e-003
1.845543e+003, 9.072657e-003
1.847471e+003, 8.545918e-003
1.849400e+003, 7.821563e-003
1.851328e+003, 7.579884e-003
1.853256e+003, 7.187687e-003
1.855185e+003, 6.400942e-003
1.857113e+003, 6.127046e-003
1.859042e+003, 5.544977e-003
1.860970e+003, 5.231482e-003
1.862899e+003, 5.160181e-003
1.864827e+003, 5.230633e-003
1.866756e+003, 5.346799e-003
1.868684e+003, 5.168729e-003
1.870613e+003, 4.767716e-003
1.872541e+003, 4.879422e-003
1.874470e+003, 4.808659e-003
1.876398e+003, 4.924937e-003
1.878327e+003, 4.717265e-003
1.880255e+003, 4.558139e-003
1.882183e+003, 4.457776e-003
1.884112e+003, 4.559265e-003
1.886040e+003, 5.368695e-003
1.887969e+003, 5.177939e-003
1.889897e+003, 5.845042e-003
1.891826e+003, 6.765603e-003
1.893754e+003, 6.125410e-003
1.895683e+003, 5.915064e-003
1.897611e+003, 5.416695e-003
1.899540e+003, 4.526600e-003
1.901468e+003, 4.169420e-003
1.903397e+003, 5.019720e-003
1.905325e+003, 6.137013e-003
1.907254e+003, 7.083333e-003
1.909182e+003, 6.169257e-003
1.911110e+003, 5.495004e-003
1.913039e+003, 4.671334e-003
1.914967e+003, 4.274529e-003
1.916896e+003, 4.805121e-003
1.918824e+003, 5.355405e-003
1.920753e+003, 5.305896e-003
1.922681e+003, 5.787204e-003
1.924610e+003, 6.696275e-003
1.926538e+003, 8.160758e-003
1.928467e+003, 7.305264e-003
1.930395e+003, 6.568830e-003
1.932324e+003, 8.177184e-003
1.934252e+003, 7.995227e-003
1.936181e+003, 6.317062e-003
1.938109e+003, 5.289345e-003
1.940037e+003, 5.573906e-003
1.941966e+003, 7.424234e-003
1.943894e+003, 7.689741e-003
1.945823e+003, 7.368281e-003
1.947751e+003, 6.665552e-003
1.949680e+003, 7.292634e-003
1.951608e+003, 8.329513e-003
1.953537e+003, 7.834821e-003
1.955465e+003, 6.124705e-003
1.957394e+003, 6.434499e-003
1.959322e+003, 8.827721e-003
1.961251e+003, 7.981462e-003
1.963179e+003, 6.732314e-003
1.965108e+003, 6.284901e-003
1.967036e+003, 6.990937e-003
1.968964e+003, 7.454134e-003
1.970893e+003, 6.086074e-003
1.972821e+003, 7.157095e-003
1.974750e+003, 9.073375e-003
1.976678e+003, 9.392269e-003
1.978607e+003, 8.792597e-003
1.980535e+003, 1.137892e-002
1.982464e+003, 1.353542e-002
1.984392e+003, 1.201752e-002
1.986321e+003, 9.565850e-003
1.988249e+003, 9.270834e-003
1.990178e+003, 7.790449e-003
1.992106e+003, 5.635337e-003
1.994035e+003, 6.514606e-003
1.995963e+003, 5.206953e-003
1.997891e+003, 5.716137e-003
1.999820e+003, 8.601262e-003
2.001748e+003, 7.982593e-003
2.003677e+003, 7.131536e-003
2.005605e+003, 8.101598e-003
2.007534e+003, 7.214477e-003
2.009462e+003, 5.283365e-003
2.011391e+003, 4.937095e-003
2.013319e+003, 6.033555e-003
2.015248e+003, 8.033729e-003
2.017176e+003, 6.454459e-003
2.019105e+003, 3.991290e-003
2.021033e+003, 3.847389e-003
2.022962e+003, 6.467840e-003
2.024890e+003, 8.655900e-003
2.026818e+003, 9.167315e-003
2.028747e+003, 8.598666e-003
2.030675e+003, 9.344889e-003
2.032604e+003, 1.130662e-002
2.034532e+003, 1.111266e-002
2.036461e+003, 1.337234e-002
2.038389e+003, 1.309062e-002
2.040318e+003, 1.221397e-002
2.042246e+003, 1.067238e-002
2.044175e+003, 9.847137e-003
2.046103e+003, 9.234400e-003
2.048031e+003, 8.597285e-003
2.049960e+003, 8.391428e-003
2.051888e+003, 6.592790e-003
2.053817e+003, 6.426446e-003
2.055745e+003, 6.109533e-003
2.057674e+003, 4.773944e-003
2.059602e+003, 4.512669e-003
2.061531e+003, 6.737322e-003
2.063459e+003, 7.464197e-003
2.065388e+003, 8.030719e-003
2.067316e+003, 9.222100e-003
2.069245e+003, 8.464209e-003
2.071173e+003, 6.048841e-003
2.073102e+003, 5.330518e-003
2.075030e+003, 7.234601e-003
2.076958e+003, 7.999609e-003
2.078887e+003, 7.610305e-003
2.080815e+003, 8.598192e-003
2.082744e+003, 9.035913e-003
2.084672e+003, 8.555974e-003
2.086601e+003, 8.537018e-003
2.088529e+003, 8.064701e-003
2.090458e+003, 7.235186e-003
2.092386e+003, 8.264697e-003
2.094315e+003, 8.739166e-003
2.096243e+003, 7.398047e-003
2.098172e+003, 8.373354e-003
2.100100e+003, 9.910475e-003
2.102029e+003, 9.398834e-003
2.103957e+003, 9.071760e-003
2.105885e+003, 8.762579e-003
2.107814e+003, 7.985710e-003
2.109742e+003, 8.652586e-003
2.111671e+003, 8.904845e-003
2.113599e+003, 8.152181e-003
2.115528e+003, 7.894737e-003
2.117456e+003, 8.052817e-003
2.119385e+003, 7.903393e-003
2.121313e+003, 8.510469e-003
2.123242e+003, 9.002228e-003
2.125170e+003, 6.530637e-003
2.127099e+003, 5.033582e-003
2.129027e+003, 6.427547e-003
2.130956e+003, 6.961151e-003
2.132884e+003, 7.051048e-003
2.134813e+003, 7.527605e-003
2.136741e+003, 6.106199e-003
2.138669e+003, 6.543075e-003
2.140598e+003, 6.735707e-003
2.142526e+003, 6.497611e-003
2.144455e+003, 6.667973e-003
2.146383e+003, 9.232855e-003
2.148312e+003, 1.095891e-002
2.150240e+003, 1.135017e-002
2.152169e+003, 8.140878e-003
2.154097e+003, 5.446238e-003
2.156026e+003, 3.795029e-003
2.157954e+003, 4.942411e-003
2.159883e+003, 9.614859e-003
2.161811e+003, 1.410819e-002
2.163740e+003, 1.390290e-002
2.165668e+003, 9.347191e-003
2.167596e+003, 7.045242e-003
2.169525e+003, 1.000027e-002
2.171453e+003, 1.170506e-002
2.173382e+003, 1.224276e-002
2.175310e+003, 1.214206e-002
2.177239e+003, 1.060288e-002
2.179167e+003, 9.958102e-003
2.181096e+003, 1.224243e-002
2.183024e+003, 1.361609e-002
2.184953e+003, 1.331817e-002
2.186881e+003, 1.099995e-002
2.188810e+003, 9.349730e-003
2.190738e+003, 9.612006e-003
2.192667e+003, 1.069836e-002
2.194595e+003, 1.135394e-002
2.196523e+003, 9.725321e-003
2.198452e+003, 9.694047e-003
2.200380e+003, 1.083126e-002
2.202309e+003, 9.031488e-003
2.204237e+003, 8.347929e-003
2.206166e+003, 9.674526e-003
2.208094e+003, 1.162727e-002
2.210023e+003, 1.229865e-002
2.211951e+003, 1.155515e-002
2.213880e+003, 1.017492e-002
2.215808e+003, 8.495959e-003
2.217737e+003, 9.262193e-003
2.219665e+003, 9.699103e-003
2.221594e+003, 8.613575e-003
2.223522e+003, 8.600090e-003
2.225450e+003, 8.812463e-003
2.227379e+003, 7.686015e-003
2.229307e+003, 8.415900e-003
2.231236e+003, 9.267218e-003
2.233164e+003, 8.037338e-003
2.235093e+003, 7.725324e-003
2.237021e+003, 6.676856e-003
2.238950e+003, 8.686183e-003
2.240878e+003, 1.102258e-002
2.242807e+003, 1.020453e-002
2.244735e+003, 9.465521e-003
2.246664e+003, 9.428628e-003
2.248592e+003, 6.796917e-003
2.250521e+003, 7.865316e-003
2.252449e+003, 8.468030e-003
2.254377e+003, 9.346291e-003
2.256306e+003, 1.300052e-002
2.258234e+003, 1.183668e-002
2.260163e+003, 9.184679e-003
2.262091e+003, 8.930552e-003
2.264020e+003, 9.131980e-003
2.265948e+003, 9.563994e-003
2.267877e+003, 9.164829e-003
2.269805e+003, 8.565902e-003
2.271734e+003, 9.269691e-003
2.273662e+003, 1.041055e-002
2.275591e+003, 9.614208e-003
2.277519e+003, 9.802740e-003
2.279448e+003, 1.034804e-002
2.281376e+003, 1.098152e-002
2.283304e+003, 1.096380e-002
2.285233e+003, 9.956853e-003
2.287161e+003, 1.043039e-002
2.289090e+003, 1.059747e-002
2.291018e+003, 1.152821e-002
2.292947e+003, 1.126148e-002
2.294875e+003, 9.636411e-003
2.296804e+003, 9.706599e-003
2.298732e+003, 9.843121e-003
2.300661e+003, 9.701191e-003
2.302589e+003, 1.028689e-002
2.304518e+003, 1.053863e-002
2.306446e+003, 1.053316e-002
2.308375e+003, 1.050185e-002
2.310303e+003, 9.980647e-003
2.312231e+003, 9.588001e-003
2.314160e+003, 9.706317e-003
2.316088e+003, 1.053881e-002
2.318017e+003, 1.029676e-002
2.319945e+003, 1.041577e-002
2.321874e+003, 1.112854e-002
2.323802e+003, 1.091827e-002
2.325731e+003, 9.711511e-003
2.327659e+003, 9.279382e-003
2.329588e+003, 9.334903e-003
2.331516e+003, 8.261783e-003
2.333445e+003, 7.797363e-003
2.335373e+003, 8.418460e-003
2.337302e+003, 8.893667e-003
2.339230e+003, 9.075776e-003
2.341158e+003, 9.282860e-003
2.343087e+003, 9.274368e-003
2.345015e+003, 8.952023e-003
2.346944e+003, 9.333032e-003
2.348872e+003, 1.006953e-002
2.350801e+003, 9.602148e-003
2.352729e+003, 8.479532e-003
2.354658e+003, 8.289276e-003
2.356586e+003, 8.166187e-003
2.358515e+003, 8.461063e-003
2.360443e+003, 9.566928e-003
2.362372e+003, 9.851392e-003
2.364300e+003, 9.027695e-003
2.366229e+003, 7.577343e-003
2.368157e+003, 7.704625e-003
2.370085e+003, 8.698408e-003
2.372014e+003, 8.422641e-003
2.373942e+003, 9.017457e-003
2.375871e+003, 9.127867e-003
2.377799e+003, 8.988634e-003
2.379728e+003, 9.563435e-003
2.381656e+003, 1.006336e-002
2.383585e+003, 1.027697e-002
2.385513e+003, 1.025838e-002
2.387442e+003, 1.067708e-002
2.389370e+003, 1.087706e-002
2.391299e+003, 1.058314e-002
2.393227e+003, 1.021868e-002
2.395156e+003, 9.659156e-003
2.397084e+003, 9.542363e-003
2.399012e+003, 8.720966e-003
2.400941e+003, 8.747791e-003
2.402869e+003, 9.908142e-003
2.404798e+003, 1.024072e-002
2.406726e+003, 9.559259e-003
2.408655e+003, 9.981147e-003
2.410583e+003, 1.111602e-002
2.412512e+003, 1.155173e-002
2.414440e+003, 1.202422e-002
2.416369e+003, 1.175349e-002
2.418297e+003, 1.143264e-002
2.420226e+003, 1.132624e-002
2.422154e+003, 1.041335e-002
2.424083e+003, 9.516099e-003
2.426011e+003, 9.540705e-003
2.427939e+003, 9.600975e-003
2.429868e+003, 9.748112e-003
2.431796e+003, 1.019834e-002
2.433725e+003, 1.117440e-002
2.435653e+003, 1.105872e-002
2.437582e+003, 1.032316e-002
2.439510e+003, 1.119876e-002
2.441439e+003, 1.111801e-002
2.443367e+003, 1.011363e-002
2.445296e+003, 9.607223e-003
2.447224e+003, 1.100343e-002
2.449153e+003, 1.233821e-002
2.451081e+003, 1.248810e-002
2.453010e+003, 1.094634e-002
2.454938e+003, 1.036750e-002
2.456866e+003, 1.167580e-002
2.458795e+003, 1.138486e-002
2.460723e+003, 1.063830e-002
2.462652e+003, 1.142482e-002
2.464580e+003, 1.174490e-002
2.466509e+003, 1.171162e-002
2.468437e+003, 1.109534e-002
2.470366e+003, 1.033257e-002
2.472294e+003, 1.000240e-002
2.474223e+003, 1.035549e-002
2.476151e+003, 1.169934e-002
2.478080e+003, 1.210422e-002
2.480008e+003, 1.122208e-002
2.481937e+003, 1.127759e-002
2.483865e+003, 1.286383e-002
2.485793e+003, 1.360282e-002
2.487722e+003, 1.327953e-002
2.489650e+003, 1.188280e-002
2.491579e+003, 1.090578e-002
2.493507e+003, 1.117146e-002
2.495436e+003, 1.170980e-002
2.497364e+003, 1.197208e-002
2.499293e+003, 1.325453e-002
2.501221e+003, 1.396046e-002
2.503150e+003, 1.491349e-002
2.505078e+003, 1.567257e-002
2.507007e+003, 1.426868e-002
2.508935e+003, 1.396874e-002
2.510864e+003, 1.618878e-002
2.512792e+003, 1.763789e-002
2.514720e+003, 1.851890e-002
2.516649e+003, 1.765395e-002
2.518577e+003, 1.716102e-002
2.520506e+003, 1.908301e-002
2.522434e+003, 2.037714e-002
2.524363e+003, 2.139784e-002
2.526291e+003, 2.083716e-002
2.528220e+003, 1.971422e-002
2.530148e+003, 1.930710e-002
2.532077e+003, 1.895421e-002
2.534005e+003, 1.825176e-002
2.535934e+003, 1.867717e-002
2.537862e+003, 2.037105e-002
2.539791e+003, 2.204343e-002
2.541719e+003, 2.174120e-002
2.543647e+003, 2.078346e-002
2.545576e+003, 1.921634e-002
2.547504e+003, 1.836264e-002
2.549433e+003, 1.759345e-002
2.551361e+003, 1.826883e-002
2.553290e+003, 1.826303e-002
2.555218e+003, 1.727447e-002
2.557147e+003, 1.647515e-002
2.559075e+003, 1.553256e-002
2.561004e+003, 1.529388e-002
2.562932e+003, 1.582046e-002
2.564861e+003, 1.723642e-002
2.566789e+003, 1.668913e-002
2.568718e+003, 1.600803e-002
2.570646e+003, 1.633972e-002
2.572574e+003, 1.655664e-002
2.574503e+003, 1.676439e-002
2.576431e+003, 1.562310e-002
2.578360e+003, 1.505563e-002
2.580288e+003, 1.573847e-002
2.582217e+003, 1.642750e-002
2.584145e+003, 1.658254e-002
2.586074e+003, 1.661726e-002
2.588002e+003, 1.592276e-002
2.589931e+003, 1.479430e-002
2.591859e+003, 1.440607e-002
2.593788e+003, 1.403366e-002
2.595716e+003, 1.361702e-002
2.597645e+003, 1.462934e-002
2.599573e+003, 1.522315e-002
2.601501e+003, 1.596114e-002
2.603430e+003, 1.597604e-002
2.605358e+003, 1.538032e-002
2.607287e+003, 1.554750e-002
2.609215e+003, 1.455954e-002
2.611144e+003, 1.468021e-002
2.613072e+003, 1.527657e-002
2.615001e+003, 1.479572e-002
2.616929e+003, 1.484011e-002
2.618858e+003, 1.503207e-002
2.620786e+003, 1.518147e-002
2.622715e+003, 1.557589e-002
2.624643e+003, 1.525194e-002
2.626572e+003, 1.494901e-002
2.628500e+003, 1.548179e-002
2.630428e+003, 1.525120e-002
2.632357e+003, 1.537022e-002
2.634285e+003, 1.565602e-002
2.636214e+003, 1.528961e-002
2.638142e+003, 1.422425e-002
2.640071e+003, 1.354473e-002
2.641999e+003, 1.450433e-002
2.643928e+003, 1.483870e-002
2.645856e+003, 1.412348e-002
2.647785e+003, 1.350894e-002
2.649713e+003, 1.283825e-002
2.651642e+003, 1.350719e-002
2.653570e+003, 1.369833e-002
2.655499e+003, 1.369493e-002
2.657427e+003, 1.415306e-002
2.659355e+003, 1.364768e-002
2.661284e+003, 1.251906e-002
2.663212e+003, 1.165854e-002
2.665141e+003, 1.176743e-002
2.667069e+003, 1.218114e-002
2.668998e+003, 1.237496e-002
2.670926e+003, 1.167622e-002
2.672855e+003, 1.133707e-002
2.674783e+003, 1.239094e-002
2.676712e+003, 1.286916e-002
2.678640e+003, 1.229130e-002
2.680569e+003, 1.109788e-002
2.682497e+003, 1.019767e-002
2.684426e+003, 1.141327e-002
2.686354e+003, 1.212333e-002
2.688282e+003, 1.149237e-002
2.690211e+003, 1.123436e-002
2.692139e+003, 1.127196e-002
2.694068e+003, 1.255038e-002
2.695996e+003, 1.254167e-002
2.697925e+003, 1.118372e-002
2.699853e+003, 1.117501e-002
2.701782e+003, 1.192080e-002
2.703710e+003, 1.215603e-002
2.705639e+003, 1.229433e-002
2.707567e+003, 1.147316e-002
2.709496e+003, 1.138424e-002
2.711424e+003, 1.205973e-002
2.713353e+003, 1.262714e-002
2.715281e+003, 1.243607e-002
2.717209e+003, 1.168268e-002
2.719138e+003, 1.197981e-002
2.721066e+003, 1.194796e-002
2.722995e+003, 1.116732e-002
2.724923e+003, 1.123393e-002
2.726852e+003, 1.152523e-002
2.728780e+003, 1.157364e-002
2.730709e+003, 1.128555e-002
2.732637e+003, 1.080778e-002
2.734566e+003, 1.068457e-002
2.736494e+003, 1.100852e-002
2.738423e+003, 1.054016e-002
2.740351e+003, 1.042878e-002
2.742280e+003, 1.173853e-002
2.744208e+003, 1.214363e-002
2.746136e+003, 1.155023e-002
2.748065e+003, 1.202301e-002
2.749993e+003, 1.234774e-002
2.751922e+003, 1.241425e-002
2.753850e+003, 1.175958e-002
2.755779e+003, 1.068997e-002
2.757707e+003, 1.011935e-002
2.759636e+003, 1.062523e-002
2.761564e+003, 1.174798e-002
2.763493e+003, 1.204731e-002
2.765421e+003, 1.116771e-002
2.767350e+003, 1.179464e-002
2.769278e+003, 1.172706e-002
2.771207e+003, 1.111165e-002
2.773135e+003, 1.164189e-002
2.775063e+003, 1.171711e-002
2.776992e+003, 1.159537e-002
2.778920e+003, 1.206127e-002
2.780849e+003, 1.201399e-002
2.782777e+003, 1.132529e-002
2.784706e+003, 1.220764e-002
2.786634e+003, 1.186592e-002
2.788563e+003, 1.106916e-002
2.790491e+003, 1.151647e-002
2.792420e+003, 1.129112e-002
2.794348e+003, 1.057646e-002
2.796277e+003, 1.132636e-002
2.798205e+003, 1.246023e-002
2.800134e+003, 1.323094e-002
2.802062e+003, 1.294631e-002
2.803990e+003, 1.137664e-002
2.805919e+003, 1.059118e-002
2.807847e+003, 1.153034e-002
2.809776e+003, 1.267947e-002
2.811704e+003, 1.270484e-002
2.813633e+003, 1.276951e-002
2.815561e+003, 1.246683e-002
2.817490e+003, 1.227384e-002
2.819418e+003, 1.235896e-002
2.821347e+003, 1.302852e-002
2.823275e+003, 1.273321e-002
2.825204e+003, 1.180897e-002
2.827132e+003, 1.137759e-002
2.829061e+003, 1.202868e-002
2.830989e+003, 1.267076e-002
2.832917e+003, 1.247996e-002
2.834846e+003, 1.225164e-002
2.836774e+003, 1.335020e-002
2.838703e+003, 1.391316e-002
2.840631e+003, 1.363213e-002
2.842560e+003, 1.340818e-002
2.844488e+003, 1.299803e-002
2.846417e+003, 1.270626e-002
2.848345e+003, 1.296415e-002
2.850274e+003, 1.349851e-002
2.852202e+003, 1.378828e-002
2.854131e+003, 1.328935e-002
2.856059e+003, 1.360656e-002
2.857988e+003, 1.337690e-002
2.859916e+003, 1.335087e-002
2.861844e+003, 1.329728e-002
2.863773e+003, 1.295047e-002
2.865701e+003, 1.367765e-002
2.867630e+003, 1.453493e-002
2.869558e+003, 1.509381e-002
2.871487e+003, 1.471332e-002
2.873415e+003, 1.425075e-002
2.875344e+003, 1.577572e-002
2.877272e+003, 1.692232e-002
2.879201e+003, 1.728550e-002
2.881129e+003, 1.602182e-002
2.883058e+003, 1.509820e-002
2.884986e+003, 1.562912e-002
2.886915e+003, 1.593346e-002
2.888843e+003, 1.550765e-002
2.890771e+003, 1.533696e-002
2.892700e+003, 1.577767e-002
2.894628e+003, 1.603627e-002
2.896557e+003, 1.566741e-002
2.898485e+003, 1.656608e-002
2.900414e+003, 1.805174e-002
2.902342e+003, 1.860763e-002
2.904271e+003, 1.811255e-002
2.906199e+003, 1.821035e-002
2.908128e+003, 1.792587e-002
2.910056e+003, 1.729967e-002
2.911985e+003, 1.690937e-002
2.913913e+003, 1.751397e-002
2.915842e+003, 1.815962e-002
2.917770e+003, 1.938008e-002
2.919698e+003, 1.880943e-002
2.921627e+003, 1.847792e-002
2.923555e+003, 1.886240e-002
2.925484e+003, 2.065023e-002
2.927412e+003, 2.130719e-002
2.929341e+003, 2.042957e-002
2.931269e+003, 1.936788e-002
2.933198e+003, 1.846964e-002
2.935126e+003, 1.848238e-002
2.937055e+003, 1.868174e-002
2.938983e+003, 1.978572e-002
2.940912e+003, 1.986392e-002
2.942840e+003, 1.820571e-002
2.944769e+003, 1.745499e-002
2.946697e+003, 1.735379e-002
2.948625e+003, 1.766337e-002
2.950554e+003, 1.810092e-002
2.952482e+003, 1.785808e-002
2.954411e+003, 1.782150e-002
2.956339e+003, 1.810830e-002
2.958268e+003, 1.858007e-002
2.960196e+003, 1.776411e-002
2.962125e+003, 1.742445e-002
2.964053e+003, 1.803871e-002
2.965982e+003, 1.825646e-002
2.967910e+003, 1.936467e-002
2.969839e+003, 1.980856e-002
2.971767e+003, 1.821248e-002
2.973696e+003, 1.813966e-002
2.975624e+003, 1.764278e-002
2.977552e+003, 1.672621e-002
2.979481e+003, 1.763272e-002
2.981409e+003, 1.818511e-002
2.983338e+003, 1.845213e-002
2.985266e+003, 1.830855e-002
2.987195e+003, 1.830743e-002
2.989123e+003, 1.952239e-002
2.991052e+003, 1.935712e-002
2.992980e+003, 1.858833e-002
2.994909e+003, 1.904500e-002
2.996837e+003, 2.002897e-002
2.998766e+003, 2.085943e-002
3.000694e+003, 2.006879e-002
3.002623e+003, 1.961904e-002
3.004551e+003, 2.138290e-002
3.006479e+003, 2.177550e-002
3.008408e+003, 2.028418e-002
3.010336e+003, 1.967642e-002
3.012265e+003, 1.904650e-002
3.014193e+003, 1.924629e-002
3.016122e+003, 2.020384e-002
3.018050e+003, 2.148650e-002
3.019979e+003, 2.145639e-002
3.021907e+003, 2.115288e-002
3.023836e+003, 2.049698e-002
3.025764e+003, 1.996770e-002
3.027693e+003, 2.077168e-002
3.029621e+003, 2.084763e-002
3.031550e+003, 1.992950e-002
3.033478e+003, 2.086120e-002
3.035406e+003, 2.185320e-002
3.037335e+003, 2.206509e-002
3.039263e+003, 2.166025e-002
3.041192e+003, 2.126565e-002
3.043120e+003, 1.924539e-002
3.045049e+003, 1.925635e-002
3.046977e+003, 2.061119e-002
3.048906e+003, 2.192081e-002
3.050834e+003, 2.223954e-002
3.052763e+003, 2.195451e-002
3.054691e+003, 2.307176e-002
3.056620e+003, 2.405550e-002
3.058548e+003, 2.249129e-002
3.060477e+003, 2.058869e-002
3.062405e+003, 1.913746e-002
3.064333e+003, 1.856426e-002
3.066262e+003, 2.032233e-002
3.068190e+003, 2.021011e-002
3.070119e+003, 1.985612e-002
3.072047e+003, 2.100018e-002
3.073976e+003, 2.052466e-002
3.075904e+003, 1.915555e-002
3.077833e+003, 1.969621e-002
3.079761e+003, 2.004433e-002
3.081690e+003, 2.008684e-002
3.083618e+003, 2.136827e-002
3.085547e+003, 2.116122e-002
3.087475e+003, 2.135248e-002
3.089404e+003, 2.210135e-002
3.091332e+003, 2.167434e-002
3.093260e+003, 2.001889e-002
3.095189e+003, 2.159257e-002
3.097117e+003, 2.461176e-002
3.099046e+003, 2.378642e-002
3.100974e+003, 2.232411e-002
3.102903e+003, 2.242172e-002
3.104831e+003, 2.267773e-002
3.106760e+003, 2.319921e-002
3.108688e+003, 2.300667e-002
3.110617e+003, 2.359107e-002
3.112545e+003, 2.397359e-002
3.114474e+003, 2.404779e-002
3.116402e+003, 2.279374e-002
3.118331e+003, 2.186206e-002
3.120259e+003, 2.325837e-002
3.122188e+003, 2.437328e-002
3.124116e+003, 2.391657e-002
3.126044e+003, 2.294507e-002
3.127973e+003, 2.061179e-002
3.129901e+003, 2.035456e-002
3.131830e+003, 2.295334e-002
3.133758e+003, 2.334177e-002
3.135687e+003, 2.319538e-002
3.137615e+003, 2.409346e-002
3.139544e+003, 2.441769e-002
3.141472e+003, 2.343576e-002
3.143401e+003, 2.317606e-002
3.145329e+003, 2.558622e-002
3.147258e+003, 2.490634e-002
3.149186e+003, 2.420366e-002
3.151115e+003, 2.567254e-002
3.153043e+003, 2.536712e-002
3.154971e+003, 2.457759e-002
3.156900e+003, 2.513051e-002
3.158828e+003, 2.518306e-002
3.160757e+003, 2.459994e-002
3.162685e+003, 2.494060e-002
3.164614e+003, 2.621177e-002
3.166542e+003, 2.544473e-002
3.168471e+003, 2.658810e-002
3.170399e+003, 2.748727e-002
3.172328e+003, 2.598128e-002
3.174256e+003, 2.638780e-002
3.176185e+003, 2.583325e-002
3.178113e+003, 2.650026e-002
3.180042e+003, 2.746542e-002
3.181970e+003, 2.757801e-002
3.183898e+003, 2.688148e-002
3.185827e+003, 2.756309e-002
3.187755e+003, 2.894767e-002
3.189684e+003, 2.862020e-002
3.191612e+003, 2.871070e-002
3.193541e+003, 2.929900e-002
3.195469e+003, 2.925322e-002
3.197398e+003, 2.807048e-002
3.199326e+003, 2.760527e-002
3.201255e+003, 2.745194e-002
3.203183e+003, 2.769593e-002
3.205112e+003, 2.836287e-002
3.207040e+003, 2.901885e-002
3.208969e+003, 2.936822e-002
3.210897e+003, 2.758118e-002
3.212825e+003, 2.716295e-002
3.214754e+003, 2.664227e-002
3.216682e+003, 2.590648e-002
3.218611e+003, 2.626678e-002
3.220539e+003, 2.594189e-002
3.222468e+003, 2.730010e-002
3.224396e+003, 2.738257e-002
3.226325e+003, 2.632014e-002
3.228253e+003, 2.655486e-002
3.230182e+003, 2.820606e-002
3.232110e+003, 2.731103e-002
3.234039e+003, 2.755690e-002
3.235967e+003, 2.897255e-002
3.237896e+003, 2.730030e-002
3.239824e+003, 2.572055e-002
3.241752e+003, 2.702313e-002
3.243681e+003, 2.762778e-002
3.245609e+003, 2.713389e-002
3.247538e+003, 2.868428e-002
3.249466e+003, 2.906440e-002
3.251395e+003, 2.922253e-002
3.253323e+003, 2.918099e-002
3.255252e+003, 2.868196e-002
3.257180e+003, 2.977175e-002
3.259109e+003, 3.009788e-002
3.261037e+003, 3.026856e-002
3.262966e+003, 2.987112e-002
3.264894e+003, 3.020269e-002
3.266823e+003, 3.086222e-002
3.268751e+003, 3.051787e-002
3.270679e+003, 3.021979e-002
3.272608e+003, 2.940898e-002
3.274536e+003, 3.024323e-002
3.276465e+003, 3.127033e-002
3.278393e+003, 2.942826e-002
3.280322e+003, 2.931775e-002
3.282250e+003, 2.999457e-002
3.284179e+003, 2.960873e-002
3.286107e+003, 2.902428e-002
3.288036e+003, 2.911903e-002
3.289964e+003, 2.984732e-002
3.291893e+003, 3.025101e-002
3.293821e+003, 2.931976e-002
3.295750e+003, 2.973077e-002
3.297678e+003, 2.865609e-002
3.299606e+003, 2.767559e-002
3.301535e+003, 2.855011e-002
3.303463e+003, 2.840857e-002
3.305392e+003, 2.772512e-002
3.307320e+003, 2.925391e-002
3.309249e+003, 3.030132e-002
3.311177e+003, 2.931535e-002
3.313106e+003, 2.883742e-002
3.315034e+003, 2.832188e-002
3.316963e+003, 2.806209e-002
3.318891e+003, 2.851668e-002
3.320820e+003, 2.995064e-002
3.322748e+003, 2.961242e-002
3.324677e+003, 2.864561e-002
3.326605e+003, 2.822493e-002
3.328533e+003, 2.810353e-002
3.330462e+003, 2.777353e-002
3.332390e+003, 2.865767e-002
3.334319e+003, 2.818550e-002
3.336247e+003, 2.746798e-002
3.338176e+003, 2.826265e-002
3.340104e+003, 3.047851e-002
3.342033e+003, 3.006384e-002
3.343961e+003, 2.948439e-002
3.345890e+003, 3.134261e-002
3.347818e+003, 3.274040e-002
3.349747e+003, 3.045032e-002
3.351675e+003, 3.033268e-002
3.353604e+003, 3.097258e-002
3.355532e+003, 3.121914e-002
3.357460e+003, 3.004987e-002
3.359389e+003, 3.005145e-002
3.361317e+003, 3.261899e-002
3.363246e+003, 3.110990e-002
3.365174e+003, 2.864132e-002
3.367103e+003, 2.726763e-002
3.369031e+003, 2.698120e-002
3.370960e+003, 2.768593e-002
3.372888e+003, 2.897015e-002
3.374817e+003, 2.915781e-002
3.376745e+003, 2.974970e-002
3.378674e+003, 2.926148e-002
3.380602e+003, 2.816791e-002
3.382531e+003, 2.839238e-002
3.384459e+003, 2.787429e-002
3.386387e+003, 2.845163e-002
3.388316e+003, 3.018095e-002
3.390244e+003, 3.098628e-002
3.392173e+003, 3.099404e-002
3.394101e+003, 3.120922e-002
3.396030e+003, 3.182805e-002
3.397958e+003, 2.962158e-002
3.399887e+003, 2.884463e-002
3.401815e+003, 2.953848e-002
3.403744e+003, 2.962426e-002
3.405672e+003, 3.030813e-002
3.407601e+003, 3.039237e-002
3.409529e+003, 2.922852e-002
3.411458e+003, 2.806623e-002
3.413386e+003, 2.824405e-002
3.415314e+003, 2.706603e-002
3.417243e+003, 2.764945e-002
3.419171e+003, 2.913972e-002
3.421100e+003, 2.844895e-002
3.423028e+003, 2.765085e-002
3.424957e+003, 2.832637e-002
3.426885e+003, 2.958092e-002
3.428814e+003, 2.880994e-002
3.430742e+003, 2.822443e-002
3.432671e+003, 2.952923e-002
3.434599e+003, 3.042746e-002
3.436528e+003, 3.064619e-002
3.438456e+003, 3.170446e-002
3.440385e+003, 3.098792e-002
3.442313e+003, 3.027545e-002
3.444241e+003, 2.994134e-002
3.446170e+003, 2.915451e-002
3.448098e+003, 3.085223e-002
3.450027e+003, 3.270398e-002
3.451955e+003, 3.137137e-002
3.453884e+003, 3.101452e-002
3.455812e+003, 3.029428e-002
3.457741e+003, 2.966753e-002
3.459669e+003, 2.828765e-002
3.461598e+003, 2.903992e-002
3.463526e+003, 3.085544e-002
3.465455e+003, 3.131865e-002
3.467383e+003, 3.187988e-002
3.469312e+003, 3.048006e-002
3.471240e+003, 3.010189e-002
3.473168e+003, 3.088355e-002
3.475097e+003, 3.025973e-002
3.477025e+003, 3.032977e-002
3.478954e+003, 3.064383e-002
3.480882e+003, 3.053311e-002
3.482811e+003, 3.152217e-002
3.484739e+003, 2.997431e-002
3.486668e+003, 2.823471e-002
3.488596e+003, 2.779994e-002
3.490525e+003, 2.875951e-002
3.492453e+003, 2.908430e-002
3.494382e+003, 3.064302e-002
3.496310e+003, 3.203095e-002
3.498239e+003, 3.175435e-002
3.500167e+003, 3.068145e-002
3.502095e+003, 2.940273e-002
3.504024e+003, 2.962478e-002
3.505952e+003, 3.013142e-002
3.507881e+003, 3.008979e-002
3.509809e+003, 2.928728e-002
3.511738e+003, 2.910317e-002
3.513666e+003, 2.979640e-002
3.515595e+003, 3.015524e-002
3.517523e+003, 3.080290e-002
3.519452e+003, 3.157782e-002
3.521380e+003, 3.071572e-002
3.523309e+003, 2.969735e-002
3.525237e+003, 3.031992e-002
3.527166e+003, 3.032768e-002
3.529094e+003, 3.000390e-002
3.531022e+003, 2.977955e-002
3.532951e+003, 3.138814e-002
3.534879e+003, 3.167081e-002
3.536808e+003, 3.146200e-002
3.538736e+003, 2.966839e-002
3.540665e+003, 2.628847e-002
3.542593e+003, 2.623449e-002
3.544522e+003, 2.752530e-002
3.546450e+003, 2.670060e-002
3.548379e+003, 2.924326e-002
3.550307e+003, 3.228069e-002
3.552236e+003, 3.324080e-002
3.554164e+003, 3.252899e-002
3.556093e+003, 3.101875e-002
3.558021e+003, 3.017806e-002
3.559949e+003, 2.997877e-002
3.561878e+003, 3.117169e-002
3.563806e+003, 3.111953e-002
3.565735e+003, 3.054267e-002
3.567663e+003, 3.115381e-002
3.569592e+003, 3.132440e-002
3.571520e+003, 3.092453e-002
3.573449e+003, 2.925065e-002
3.575377e+003, 2.924893e-002
3.577306e+003, 3.086145e-002
3.579234e+003, 3.152483e-002
3.581163e+003, 3.093987e-002
3.583091e+003, 3.042315e-002
3.585020e+003, 3.013588e-002
3.586948e+003, 2.963828e-002
3.588876e+003, 3.131175e-002
3.590805e+003, 3.312500e-002
3.592733e+003, 3.135402e-002
3.594662e+003, 2.930013e-002
3.596590e+003, 2.897650e-002
3.598519e+003, 2.933825e-002
3.600447e+003, 3.011098e-002
3.602376e+003, 3.055950e-002
3.604304e+003, 3.188604e-002
3.606233e+003, 3.297893e-002
3.608161e+003, 2.991518e-002
3.610090e+003, 2.677826e-002
3.612018e+003, 2.876042e-002
3.613947e+003, 2.926870e-002
3.615875e+003, 2.663045e-002
3.617803e+003, 2.721304e-002
3.619732e+003, 2.802584e-002
3.621660e+003, 2.818859e-002
3.623589e+003, 2.812549e-002
3.625517e+003, 2.730089e-002
3.627446e+003, 2.572761e-002
3.629374e+003, 2.803059e-002
3.631303e+003, 3.155878e-002
3.633231e+003, 3.205939e-002
3.635160e+003, 2.919399e-002
3.637088e+003, 2.564852e-002
3.639017e+003, 2.589498e-002
3.640945e+003, 2.645525e-002
3.642874e+003, 2.757062e-002
3.644802e+003, 3.057143e-002
3.646730e+003, 3.332917e-002
3.648659e+003, 3.117577e-002
3.650587e+003, 3.056816e-002
3.652516e+003, 3.102718e-002
3.654444e+003, 3.096343e-002
3.656373e+003, 2.875444e-002
3.658301e+003, 2.509518e-002
3.660230e+003, 2.478317e-002
3.662158e+003, 2.591818e-002
3.664087e+003, 2.824864e-002
3.666015e+003, 2.965252e-002
3.667944e+003, 2.732423e-002
3.669872e+003, 2.684275e-002
3.671801e+003, 2.664592e-002
3.673729e+003, 2.749624e-002
3.675657e+003, 2.711868e-002
3.677586e+003, 2.772472e-002
3.679514e+003, 2.924683e-002
3.681443e+003, 2.751439e-002
3.683371e+003, 2.643281e-002
3.685300e+003, 2.674177e-002
3.687228e+003, 2.398445e-002
3.689157e+003, 2.182196e-002
3.691085e+003, 2.277514e-002
3.693014e+003, 2.651470e-002
3.694942e+003, 2.856242e-002
3.696871e+003, 2.774061e-002
3.698799e+003, 2.558528e-002
3.700728e+003, 2.485363e-002
3.702656e+003, 2.835518e-002
3.704584e+003, 3.286714e-002
3.706513e+003, 3.056877e-002
3.708441e+003, 2.532504e-002
3.710370e+003, 2.464098e-002
3.712298e+003, 2.654599e-002
3.714227e+003, 2.733278e-002
3.716155e+003, 2.594519e-002
3.718084e+003, 2.619641e-002
3.720012e+003, 2.853176e-002
3.721941e+003, 2.715588e-002
3.723869e+003, 2.534265e-002
3.725798e+003, 2.668419e-002
3.727726e+003, 2.771945e-002
3.729655e+003, 2.647878e-002
3.731583e+003, 2.472888e-002
3.733511e+003, 2.314082e-002
3.735440e+003, 2.555279e-002
3.737368e+003, 2.836581e-002
3.739297e+003, 2.950763e-002
3.741225e+003, 2.899793e-002
3.743154e+003, 2.729855e-002
3.745082e+003, 2.481645e-002
3.747011e+003, 2.393909e-002
3.748939e+003, 2.153452e-002
3.750868e+003, 2.247704e-002
3.752796e+003, 2.754578e-002
3.754725e+003, 2.934042e-002
3.756653e+003, 2.613711e-002
3.758582e+003, 2.403880e-002
3.760510e+003, 2.591644e-002
3.762438e+003, 2.747228e-002
3.764367e+003, 2.687445e-002
3.766295e+003, 2.379485e-002
3.768224e+003, 2.342804e-002
3.770152e+003, 2.683410e-002
3.772081e+003, 2.851989e-002
3.774009e+003, 2.863207e-002
3.775938e+003, 2.776985e-002
3.777866e+003, 2.653098e-002
3.779795e+003, 2.799210e-002
3.781723e+003, 2.729901e-002
3.783652e+003, 2.867384e-002
3.785580e+003, 2.813319e-002
3.787509e+003, 2.492238e-002
3.789437e+003, 2.416950e-002
3.791365e+003, 2.259147e-002
3.793294e+003, 2.161407e-002
3.795222e+003, 2.272142e-002
3.797151e+003, 2.437549e-002
3.799079e+003, 2.476939e-002
3.801008e+003, 2.377649e-002
3.802936e+003, 2.465588e-002
3.804865e+003, 2.510737e-002
3.806793e+003, 2.389663e-002
3.808722e+003, 2.132507e-002
3.810650e+003, 2.474229e-002
3.812579e+003, 2.802468e-002
3.814507e+003, 2.546463e-002
3.816436e+003, 2.388890e-002
3.818364e+003, 2.686039e-002
3.820292e+003, 2.801984e-002
3.822221e+003, 2.722659e-002
3.824149e+003, 2.281932e-002
3.826078e+003, 2.136652e-002
3.828006e+003, 2.594764e-002
3.829935e+003, 2.777645e-002
3.831863e+003, 2.443585e-002
3.833792e+003, 2.286835e-002
3.835720e+003, 2.595514e-002
3.837649e+003, 2.656718e-002
3.839577e+003, 2.520494e-002
3.841506e+003, 2.660539e-002
3.843434e+003, 2.628429e-002
3.845363e+003, 2.493250e-002
3.847291e+003, 2.610076e-002
3.849219e+003, 2.794342e-002
3.851148e+003, 2.866110e-002
3.853076e+003, 2.886183e-002
3.855005e+003, 2.755542e-002
3.856933e+003, 2.530915e-002
3.858862e+003, 2.277344e-002
3.860790e+003, 2.378788e-002
3.862719e+003, 2.459923e-002
3.864647e+003, 2.541229e-002
3.866576e+003, 2.513650e-002
3.868504e+003, 2.648634e-002
3.870433e+003, 2.727463e-002
3.872361e+003, 2.396811e-002
3.874290e+003, 2.347255e-002
3.876218e+003, 2.561081e-002
3.878146e+003, 2.659778e-002
3.880075e+003, 2.843660e-002
3.882003e+003, 2.809718e-002
3.883932e+003, 2.620647e-002
3.885860e+003, 2.752717e-002
3.887789e+003, 2.612574e-002
3.889717e+003, 2.330766e-002
3.891646e+003, 2.387115e-002
3.893574e+003, 2.596403e-002
3.895503e+003, 2.498354e-002
3.897431e+003, 1.854831e-002
3.899360e+003, 2.060510e-002
3.901288e+003, 2.404632e-002
3.903217e+003, 2.628038e-002
3.905145e+003, 2.671039e-002
3.907073e+003, 2.412426e-002
3.909002e+003, 2.455610e-002
3.910930e+003, 2.652421e-002
3.912859e+003, 2.714515e-002
3.914787e+003, 2.529785e-002
3.916716e+003, 2.523523e-002
3.918644e+003, 2.640575e-002
3.920573e+003, 2.751125e-002
3.922501e+003, 2.686792e-002
3.924430e+003, 2.303069e-002
3.926358e+003, 2.044425e-002
3.928287e+003, 2.344059e-002
3.930215e+003, 2.633546e-002
3.932144e+003, 2.457987e-002
3.934072e+003, 2.343996e-002
3.936000e+003, 2.276948e-002
3.937929e+003, 2.450378e-002
3.939857e+003, 2.742941e-002
3.941786e+003, 2.569053e-002
3.943714e+003, 2.563307e-002
3.945643e+003, 2.604536e-002
3.947571e+003, 2.368350e-002
3.949500e+003, 2.491447e-002
3.951428e+003, 2.492544e-002
3.953357e+003, 2.487753e-002
3.955285e+003, 2.687162e-002
3.957214e+003, 2.583793e-002
3.959142e+003, 2.283608e-002
3.961071e+003, 2.192509e-002
3.962999e+003, 2.176341e-002
3.964927e+003, 2.147947e-002
3.966856e+003, 2.451632e-002
3.968784e+003, 2.579788e-002
3.970713e+003, 2.444608e-002
3.972641e+003, 2.568026e-002
3.974570e+003, 2.666410e-002
3.976498e+003, 2.599314e-002
3.978427e+003, 2.326821e-002
3.980355e+003, 2.211078e-002
3.982284e+003, 2.343923e-002
3.984212e+003, 2.376734e-002
3.986141e+003, 2.304668e-002
3.988069e+003, 2.470037e-002
3.989998e+003, 2.401190e-002
3.991926e+003, 2.072315e-002
3.993854e+003, 2.108702e-002
3.995783e+003, 2.646358e-002
3.997711e+003, 2.652046e-002
3.999640e+003, 2.377863e-002
4.001568e+003, 0.000000e+000
##END=



