##NAMES=Magnesite
##RRUFFID=R040114
##IDEAL CHEMISTRY=MgCO_3_
##LOCALITY=Snarum, Norway
##OWNER=RRUFF
##SOURCE=University of Arizona Mineral Museum
##DESCRIPTION=Tan colored cleavage fragment
##STATUS=The identification of this mineral has been confirmed by X-ray diffraction and chemical analysis
##URL=rruff.info/R040114
##MEASURED CHEMISTRY=(Mg_0.98_Fe_0.01_)C_1.00_O_3_
3.991926e+002, 0.000000e+000
4.011211e+002, 1.963354e-001
4.030496e+002, 1.970914e-001
4.049780e+002, 1.963047e-001
4.069065e+002, 1.886090e-001
4.088350e+002, 1.821349e-001
4.107634e+002, 1.750286e-001
4.126919e+002, 1.721990e-001
4.146204e+002, 1.697182e-001
4.165488e+002, 1.663885e-001
4.184773e+002, 1.594637e-001
4.204058e+002, 1.535976e-001
4.223342e+002, 1.508857e-001
4.242627e+002, 1.496164e-001
4.261912e+002, 1.456914e-001
4.281196e+002, 1.383040e-001
4.300481e+002, 1.329727e-001
4.319766e+002, 1.321689e-001
4.339050e+002, 1.299506e-001
4.358335e+002, 1.258576e-001
4.377620e+002, 1.243237e-001
4.396904e+002, 1.230559e-001
4.416189e+002, 1.180974e-001
4.435474e+002, 1.151128e-001
4.454758e+002, 1.132313e-001
4.474043e+002, 1.115001e-001
4.493328e+002, 1.097706e-001
4.512612e+002, 1.060626e-001
4.531897e+002, 1.015432e-001
4.551182e+002, 9.834204e-002
4.570466e+002, 9.493531e-002
4.589751e+002, 9.127361e-002
4.609036e+002, 8.853433e-002
4.628320e+002, 8.579266e-002
4.647605e+002, 8.208966e-002
4.666890e+002, 7.763411e-002
4.686174e+002, 7.267235e-002
4.705459e+002, 6.813506e-002
4.724744e+002, 6.470692e-002
4.744028e+002, 6.071146e-002
4.763313e+002, 5.624567e-002
4.782598e+002, 5.328891e-002
4.801882e+002, 5.152193e-002
4.821167e+002, 5.041616e-002
4.840452e+002, 4.963512e-002
4.859736e+002, 4.984885e-002
4.879021e+002, 5.030085e-002
4.898306e+002, 4.975092e-002
4.917590e+002, 4.935405e-002
4.936875e+002, 4.882060e-002
4.956160e+002, 4.776121e-002
4.975444e+002, 4.650749e-002
4.994729e+002, 4.471819e-002
5.014014e+002, 4.295771e-002
5.033298e+002, 4.145051e-002
5.052583e+002, 3.969323e-002
5.071868e+002, 3.900644e-002
5.091152e+002, 3.859030e-002
5.110437e+002, 3.829078e-002
5.129722e+002, 3.872040e-002
5.149006e+002, 3.909622e-002
5.168291e+002, 3.916306e-002
5.187576e+002, 3.931785e-002
5.206860e+002, 4.011498e-002
5.226145e+002, 4.093231e-002
5.245430e+002, 4.148304e-002
5.264714e+002, 4.233869e-002
5.283999e+002, 4.341496e-002
5.303284e+002, 4.452913e-002
5.322568e+002, 4.614597e-002
5.341853e+002, 4.717566e-002
5.361138e+002, 4.835171e-002
5.380422e+002, 5.010835e-002
5.399707e+002, 5.165846e-002
5.418992e+002, 5.282295e-002
5.438276e+002, 5.422144e-002
5.457561e+002, 5.600995e-002
5.476846e+002, 5.792939e-002
5.496130e+002, 5.966741e-002
5.515415e+002, 6.164627e-002
5.534700e+002, 6.390344e-002
5.553984e+002, 6.652629e-002
5.573269e+002, 6.938877e-002
5.592554e+002, 7.169363e-002
5.611838e+002, 7.345007e-002
5.631123e+002, 7.548999e-002
5.650408e+002, 7.767874e-002
5.669692e+002, 7.924306e-002
5.688977e+002, 8.117015e-002
5.708262e+002, 8.378288e-002
5.727546e+002, 8.621317e-002
5.746831e+002, 8.828048e-002
5.766116e+002, 9.042427e-002
5.785400e+002, 9.247371e-002
5.804685e+002, 9.457758e-002
5.823970e+002, 9.717624e-002
5.843254e+002, 1.002050e-001
5.862539e+002, 1.031525e-001
5.881824e+002, 1.054112e-001
5.901108e+002, 1.083805e-001
5.920393e+002, 1.112697e-001
5.939678e+002, 1.141083e-001
5.958962e+002, 1.165627e-001
5.978247e+002, 1.187857e-001
5.997532e+002, 1.213450e-001
6.016816e+002, 1.237645e-001
6.036101e+002, 1.258216e-001
6.055386e+002, 1.285439e-001
6.074670e+002, 1.304388e-001
6.093955e+002, 1.313987e-001
6.113240e+002, 1.325585e-001
6.132524e+002, 1.334606e-001
6.151809e+002, 1.334907e-001
6.171094e+002, 1.333034e-001
6.190378e+002, 1.323291e-001
6.209663e+002, 1.306959e-001
6.228948e+002, 1.283640e-001
6.248232e+002, 1.255706e-001
6.267517e+002, 1.229407e-001
6.286802e+002, 1.214314e-001
6.306086e+002, 1.219565e-001
6.325371e+002, 1.245838e-001
6.344656e+002, 1.278957e-001
6.363940e+002, 1.308380e-001
6.383225e+002, 1.336763e-001
6.402510e+002, 1.365231e-001
6.421794e+002, 1.387886e-001
6.441079e+002, 1.404177e-001
6.460364e+002, 1.414717e-001
6.479648e+002, 1.423491e-001
6.498933e+002, 1.425152e-001
6.518218e+002, 1.422803e-001
6.537502e+002, 1.421612e-001
6.556787e+002, 1.420502e-001
6.576072e+002, 1.414995e-001
6.595356e+002, 1.407034e-001
6.614641e+002, 1.401531e-001
6.633926e+002, 1.394973e-001
6.653210e+002, 1.386335e-001
6.672495e+002, 1.374190e-001
6.691780e+002, 1.363436e-001
6.711064e+002, 1.354690e-001
6.730349e+002, 1.343518e-001
6.749634e+002, 1.334911e-001
6.768918e+002, 1.326692e-001
6.788203e+002, 1.315753e-001
6.807488e+002, 1.305636e-001
6.826772e+002, 1.296618e-001
6.846057e+002, 1.289630e-001
6.865342e+002, 1.285143e-001
6.884626e+002, 1.275083e-001
6.903911e+002, 1.262531e-001
6.923196e+002, 1.254487e-001
6.942480e+002, 1.245096e-001
6.961765e+002, 1.234533e-001
6.981050e+002, 1.225975e-001
7.000334e+002, 1.219805e-001
7.019619e+002, 1.213555e-001
7.038904e+002, 1.203589e-001
7.058188e+002, 1.192092e-001
7.077473e+002, 1.182300e-001
7.096758e+002, 1.176312e-001
7.116042e+002, 1.170802e-001
7.135327e+002, 1.163681e-001
7.154612e+002, 1.157090e-001
7.173896e+002, 1.151403e-001
7.193181e+002, 1.146816e-001
7.212466e+002, 1.144854e-001
7.231750e+002, 1.142209e-001
7.251035e+002, 1.141795e-001
7.270320e+002, 1.141414e-001
7.289604e+002, 1.144234e-001
7.308889e+002, 1.150944e-001
7.328174e+002, 1.161377e-001
7.347458e+002, 1.177655e-001
7.366743e+002, 1.207507e-001
7.386028e+002, 1.255947e-001
7.405313e+002, 1.335521e-001
7.424597e+002, 1.460422e-001
7.443882e+002, 1.637082e-001
7.463167e+002, 1.801492e-001
7.482451e+002, 1.786295e-001
7.501736e+002, 1.543599e-001
7.521021e+002, 1.252504e-001
7.540305e+002, 1.051204e-001
7.559590e+002, 9.429298e-002
7.578875e+002, 8.876009e-002
7.598159e+002, 8.586694e-002
7.617444e+002, 8.445698e-002
7.636729e+002, 8.385169e-002
7.656013e+002, 8.337796e-002
7.675298e+002, 8.253162e-002
7.694583e+002, 8.171552e-002
7.713867e+002, 8.137002e-002
7.733152e+002, 8.117326e-002
7.752437e+002, 8.103431e-002
7.771721e+002, 8.107199e-002
7.791006e+002, 8.107082e-002
7.810291e+002, 8.049428e-002
7.829575e+002, 8.014400e-002
7.848860e+002, 7.993927e-002
7.868145e+002, 7.965048e-002
7.887429e+002, 7.935454e-002
7.906714e+002, 7.915409e-002
7.925999e+002, 7.900009e-002
7.945283e+002, 7.886125e-002
7.964568e+002, 7.848176e-002
7.983853e+002, 7.844616e-002
8.003137e+002, 7.840503e-002
8.022422e+002, 7.789724e-002
8.041707e+002, 7.736880e-002
8.060991e+002, 7.709556e-002
8.080276e+002, 7.669534e-002
8.099561e+002, 7.627907e-002
8.118845e+002, 7.607688e-002
8.138130e+002, 7.574804e-002
8.157415e+002, 7.546659e-002
8.176699e+002, 7.521670e-002
8.195984e+002, 7.465806e-002
8.215269e+002, 7.421541e-002
8.234553e+002, 7.363501e-002
8.253838e+002, 7.328475e-002
8.273123e+002, 7.346136e-002
8.292407e+002, 7.319070e-002
8.311692e+002, 7.267816e-002
8.330977e+002, 7.230001e-002
8.350261e+002, 7.191867e-002
8.369546e+002, 7.137720e-002
8.388831e+002, 7.109693e-002
8.408115e+002, 7.097808e-002
8.427400e+002, 7.088129e-002
8.446685e+002, 7.063629e-002
8.465969e+002, 7.068935e-002
8.485254e+002, 7.108478e-002
8.504539e+002, 7.219160e-002
8.523823e+002, 7.471214e-002
8.543108e+002, 8.049382e-002
8.562393e+002, 8.015516e-002
8.581677e+002, 7.301082e-002
8.600962e+002, 7.297012e-002
8.620247e+002, 7.687155e-002
8.639531e+002, 8.237043e-002
8.658816e+002, 9.027997e-002
8.678101e+002, 1.018027e-001
8.697385e+002, 1.184216e-001
8.716670e+002, 1.416613e-001
8.735955e+002, 1.701839e-001
8.755239e+002, 1.981570e-001
8.774524e+002, 2.175772e-001
8.793809e+002, 2.283238e-001
8.813093e+002, 2.322380e-001
8.832378e+002, 2.300613e-001
8.851663e+002, 2.213218e-001
8.870947e+002, 2.073161e-001
8.890232e+002, 1.880000e-001
8.909517e+002, 1.651985e-001
8.928801e+002, 1.412976e-001
8.948085e+002, 1.181722e-001
8.967370e+002, 9.600150e-002
8.986655e+002, 7.540874e-002
9.005939e+002, 5.741076e-002
9.025224e+002, 4.347423e-002
9.044509e+002, 3.420482e-002
9.063793e+002, 2.920291e-002
9.083078e+002, 2.645168e-002
9.102363e+002, 2.499095e-002
9.121647e+002, 2.410462e-002
9.140932e+002, 2.379639e-002
9.160217e+002, 2.388254e-002
9.179501e+002, 2.391587e-002
9.198786e+002, 2.365607e-002
9.218071e+002, 2.357821e-002
9.237355e+002, 2.353558e-002
9.256640e+002, 2.329487e-002
9.275925e+002, 2.324750e-002
9.295209e+002, 2.342772e-002
9.314494e+002, 2.339653e-002
9.333779e+002, 2.341429e-002
9.353063e+002, 2.343196e-002
9.372348e+002, 2.363562e-002
9.391633e+002, 2.365702e-002
9.410917e+002, 2.372329e-002
9.430202e+002, 2.405902e-002
9.449487e+002, 2.431810e-002
9.468771e+002, 2.442776e-002
9.488056e+002, 2.474375e-002
9.507341e+002, 2.494327e-002
9.526625e+002, 2.534362e-002
9.545910e+002, 2.563949e-002
9.565195e+002, 2.597548e-002
9.584479e+002, 2.649904e-002
9.603764e+002, 2.708117e-002
9.623049e+002, 2.730267e-002
9.642333e+002, 2.738434e-002
9.661618e+002, 2.776881e-002
9.680903e+002, 2.835211e-002
9.700187e+002, 2.860200e-002
9.719472e+002, 2.887012e-002
9.738757e+002, 2.918341e-002
9.758041e+002, 2.932950e-002
9.777326e+002, 2.938768e-002
9.796611e+002, 2.963582e-002
9.815895e+002, 2.988981e-002
9.835180e+002, 3.041612e-002
9.854465e+002, 3.071654e-002
9.873749e+002, 3.071620e-002
9.893034e+002, 3.078347e-002
9.912319e+002, 3.137462e-002
9.931603e+002, 3.182908e-002
9.950888e+002, 3.191321e-002
9.970173e+002, 3.205409e-002
9.989457e+002, 3.233888e-002
1.000874e+003, 3.253430e-002
1.002803e+003, 3.294129e-002
1.004731e+003, 3.318185e-002
1.006660e+003, 3.345400e-002
1.008588e+003, 3.363996e-002
1.010517e+003, 3.397763e-002
1.012445e+003, 3.445718e-002
1.014373e+003, 3.468896e-002
1.016302e+003, 3.461144e-002
1.018230e+003, 3.467622e-002
1.020159e+003, 3.469738e-002
1.022087e+003, 3.456205e-002
1.024016e+003, 3.447192e-002
1.025944e+003, 3.425698e-002
1.027873e+003, 3.395569e-002
1.029801e+003, 3.380416e-002
1.031730e+003, 3.351574e-002
1.033658e+003, 3.331282e-002
1.035587e+003, 3.327161e-002
1.037515e+003, 3.314366e-002
1.039444e+003, 3.292617e-002
1.041372e+003, 3.273752e-002
1.043301e+003, 3.257220e-002
1.045229e+003, 3.241231e-002
1.047157e+003, 3.228465e-002
1.049086e+003, 3.217066e-002
1.051014e+003, 3.210338e-002
1.052943e+003, 3.207535e-002
1.054871e+003, 3.194699e-002
1.056800e+003, 3.185800e-002
1.058728e+003, 3.174278e-002
1.060657e+003, 3.172395e-002
1.062585e+003, 3.168439e-002
1.064514e+003, 3.145405e-002
1.066442e+003, 3.131568e-002
1.068371e+003, 3.148227e-002
1.070299e+003, 3.165515e-002
1.072228e+003, 3.184532e-002
1.074156e+003, 3.166086e-002
1.076084e+003, 3.159977e-002
1.078013e+003, 3.180754e-002
1.079941e+003, 3.200569e-002
1.081870e+003, 3.219370e-002
1.083798e+003, 3.259631e-002
1.085727e+003, 3.266827e-002
1.087655e+003, 3.266365e-002
1.089584e+003, 3.260002e-002
1.091512e+003, 3.267557e-002
1.093441e+003, 3.268887e-002
1.095369e+003, 3.275266e-002
1.097298e+003, 3.259586e-002
1.099226e+003, 3.248989e-002
1.101155e+003, 3.239999e-002
1.103083e+003, 3.218338e-002
1.105011e+003, 3.204320e-002
1.106940e+003, 3.187490e-002
1.108868e+003, 3.148668e-002
1.110797e+003, 3.129962e-002
1.112725e+003, 3.128919e-002
1.114654e+003, 3.096949e-002
1.116582e+003, 3.051643e-002
1.118511e+003, 3.032923e-002
1.120439e+003, 3.024204e-002
1.122368e+003, 3.046750e-002
1.124296e+003, 3.053263e-002
1.126225e+003, 3.067092e-002
1.128153e+003, 3.091201e-002
1.130082e+003, 3.096863e-002
1.132010e+003, 3.087921e-002
1.133938e+003, 3.086898e-002
1.135867e+003, 3.089971e-002
1.137795e+003, 3.084309e-002
1.139724e+003, 3.063546e-002
1.141652e+003, 3.056731e-002
1.143581e+003, 3.044859e-002
1.145509e+003, 3.045841e-002
1.147438e+003, 3.046157e-002
1.149366e+003, 3.060244e-002
1.151295e+003, 3.068935e-002
1.153223e+003, 3.067631e-002
1.155152e+003, 3.047430e-002
1.157080e+003, 3.050935e-002
1.159009e+003, 3.069007e-002
1.160937e+003, 3.081091e-002
1.162865e+003, 3.112269e-002
1.164794e+003, 3.144394e-002
1.166722e+003, 3.139675e-002
1.168651e+003, 3.162941e-002
1.170579e+003, 3.189666e-002
1.172508e+003, 3.201956e-002
1.174436e+003, 3.218214e-002
1.176365e+003, 3.252663e-002
1.178293e+003, 3.304004e-002
1.180222e+003, 3.333253e-002
1.182150e+003, 3.371080e-002
1.184079e+003, 3.437947e-002
1.186007e+003, 3.475934e-002
1.187936e+003, 3.498366e-002
1.189864e+003, 3.521841e-002
1.191792e+003, 3.561294e-002
1.193721e+003, 3.592481e-002
1.195649e+003, 3.617248e-002
1.197578e+003, 3.650565e-002
1.199506e+003, 3.694807e-002
1.201435e+003, 3.734121e-002
1.203363e+003, 3.789278e-002
1.205292e+003, 3.854314e-002
1.207220e+003, 3.909933e-002
1.209149e+003, 3.953167e-002
1.211077e+003, 3.995529e-002
1.213006e+003, 4.047613e-002
1.214934e+003, 4.108720e-002
1.216863e+003, 4.170571e-002
1.218791e+003, 4.239431e-002
1.220719e+003, 4.308563e-002
1.222648e+003, 4.396002e-002
1.224576e+003, 4.472446e-002
1.226505e+003, 4.500068e-002
1.228433e+003, 4.508271e-002
1.230362e+003, 4.524717e-002
1.232290e+003, 4.552105e-002
1.234219e+003, 4.612298e-002
1.236147e+003, 4.691177e-002
1.238076e+003, 4.769912e-002
1.240004e+003, 4.831431e-002
1.241933e+003, 4.900827e-002
1.243861e+003, 4.983785e-002
1.245790e+003, 5.067107e-002
1.247718e+003, 5.131085e-002
1.249646e+003, 5.175690e-002
1.251575e+003, 5.233720e-002
1.253503e+003, 5.321560e-002
1.255432e+003, 5.397348e-002
1.257360e+003, 5.450388e-002
1.259289e+003, 5.517224e-002
1.261217e+003, 5.603470e-002
1.263146e+003, 5.653360e-002
1.265074e+003, 5.712129e-002
1.267003e+003, 5.786224e-002
1.268931e+003, 5.886620e-002
1.270860e+003, 5.990588e-002
1.272788e+003, 6.109733e-002
1.274717e+003, 6.233757e-002
1.276645e+003, 6.381528e-002
1.278573e+003, 6.511901e-002
1.280502e+003, 6.641532e-002
1.282430e+003, 6.792557e-002
1.284359e+003, 6.946611e-002
1.286287e+003, 7.102469e-002
1.288216e+003, 7.279638e-002
1.290144e+003, 7.455745e-002
1.292073e+003, 7.653749e-002
1.294001e+003, 7.832284e-002
1.295930e+003, 8.025032e-002
1.297858e+003, 8.244796e-002
1.299787e+003, 8.471023e-002
1.301715e+003, 8.689582e-002
1.303644e+003, 8.921421e-002
1.305572e+003, 9.143128e-002
1.307500e+003, 9.383293e-002
1.309429e+003, 9.641749e-002
1.311357e+003, 9.901921e-002
1.313286e+003, 1.017759e-001
1.315214e+003, 1.046349e-001
1.317143e+003, 1.075971e-001
1.319071e+003, 1.108064e-001
1.321000e+003, 1.140097e-001
1.322928e+003, 1.175504e-001
1.324857e+003, 1.212265e-001
1.326785e+003, 1.249873e-001
1.328714e+003, 1.289950e-001
1.330642e+003, 1.331145e-001
1.332571e+003, 1.372655e-001
1.334499e+003, 1.416742e-001
1.336427e+003, 1.463564e-001
1.338356e+003, 1.513377e-001
1.340284e+003, 1.568251e-001
1.342213e+003, 1.622888e-001
1.344141e+003, 1.677974e-001
1.346070e+003, 1.736643e-001
1.347998e+003, 1.796674e-001
1.349927e+003, 1.860115e-001
1.351855e+003, 1.925830e-001
1.353784e+003, 1.993063e-001
1.355712e+003, 2.060970e-001
1.357641e+003, 2.127182e-001
1.359569e+003, 2.193260e-001
1.361498e+003, 2.263415e-001
1.363426e+003, 2.335965e-001
1.365354e+003, 2.404969e-001
1.367283e+003, 2.463546e-001
1.369211e+003, 2.520770e-001
1.371140e+003, 2.584069e-001
1.373068e+003, 2.660216e-001
1.374997e+003, 2.746788e-001
1.376925e+003, 2.825607e-001
1.378854e+003, 2.900644e-001
1.380782e+003, 2.981807e-001
1.382711e+003, 3.074656e-001
1.384639e+003, 3.177464e-001
1.386568e+003, 3.285354e-001
1.388496e+003, 3.405490e-001
1.390424e+003, 3.523282e-001
1.392353e+003, 3.641613e-001
1.394281e+003, 3.764114e-001
1.396210e+003, 3.895113e-001
1.398138e+003, 4.028027e-001
1.400067e+003, 4.179468e-001
1.401995e+003, 4.331767e-001
1.403924e+003, 4.487045e-001
1.405852e+003, 4.648190e-001
1.407781e+003, 4.810745e-001
1.409709e+003, 4.975271e-001
1.411638e+003, 5.130618e-001
1.413566e+003, 5.264036e-001
1.415495e+003, 5.371825e-001
1.417423e+003, 5.450566e-001
1.419351e+003, 5.534144e-001
1.421280e+003, 5.645778e-001
1.423208e+003, 5.761415e-001
1.425137e+003, 5.866140e-001
1.427065e+003, 5.965123e-001
1.428994e+003, 6.047140e-001
1.430922e+003, 6.100214e-001
1.432851e+003, 6.108684e-001
1.434779e+003, 6.076386e-001
1.436708e+003, 6.010802e-001
1.438636e+003, 5.918111e-001
1.440565e+003, 5.801588e-001
1.442493e+003, 5.671812e-001
1.444422e+003, 5.545157e-001
1.446350e+003, 5.432016e-001
1.448278e+003, 5.335227e-001
1.450207e+003, 5.235986e-001
1.452135e+003, 5.129683e-001
1.454064e+003, 5.018696e-001
1.455992e+003, 4.897942e-001
1.457921e+003, 4.797306e-001
1.459849e+003, 4.689013e-001
1.461778e+003, 4.581327e-001
1.463706e+003, 4.469483e-001
1.465635e+003, 4.370631e-001
1.467563e+003, 4.265793e-001
1.469492e+003, 4.168012e-001
1.471420e+003, 4.068750e-001
1.473349e+003, 3.983687e-001
1.475277e+003, 3.892514e-001
1.477205e+003, 3.808649e-001
1.479134e+003, 3.719186e-001
1.481062e+003, 3.631307e-001
1.482991e+003, 3.542078e-001
1.484919e+003, 3.456166e-001
1.486848e+003, 3.373383e-001
1.488776e+003, 3.290943e-001
1.490705e+003, 3.215173e-001
1.492633e+003, 3.136472e-001
1.494562e+003, 3.052677e-001
1.496490e+003, 2.977520e-001
1.498419e+003, 2.905022e-001
1.500347e+003, 2.837347e-001
1.502276e+003, 2.762431e-001
1.504204e+003, 2.679192e-001
1.506132e+003, 2.605350e-001
1.508061e+003, 2.546597e-001
1.509989e+003, 2.477977e-001
1.511918e+003, 2.408210e-001
1.513846e+003, 2.340626e-001
1.515775e+003, 2.268820e-001
1.517703e+003, 2.203183e-001
1.519632e+003, 2.119501e-001
1.521560e+003, 2.055851e-001
1.523489e+003, 1.989363e-001
1.525417e+003, 1.920478e-001
1.527346e+003, 1.857018e-001
1.529274e+003, 1.792069e-001
1.531203e+003, 1.724333e-001
1.533131e+003, 1.660820e-001
1.535059e+003, 1.602907e-001
1.536988e+003, 1.531171e-001
1.538916e+003, 1.464451e-001
1.540845e+003, 1.416955e-001
1.542773e+003, 1.362865e-001
1.544702e+003, 1.300608e-001
1.546630e+003, 1.249422e-001
1.548559e+003, 1.189941e-001
1.550487e+003, 1.139024e-001
1.552416e+003, 1.082322e-001
1.554344e+003, 1.031207e-001
1.556273e+003, 9.721857e-002
1.558201e+003, 9.170458e-002
1.560130e+003, 8.796310e-002
1.562058e+003, 8.340581e-002
1.563986e+003, 7.854880e-002
1.565915e+003, 7.419126e-002
1.567843e+003, 6.905078e-002
1.569772e+003, 6.462963e-002
1.571700e+003, 6.004810e-002
1.573629e+003, 5.511066e-002
1.575557e+003, 4.953393e-002
1.577486e+003, 4.607129e-002
1.579414e+003, 4.096229e-002
1.581343e+003, 3.615320e-002
1.583271e+003, 3.147598e-002
1.585200e+003, 2.707562e-002
1.587128e+003, 2.312789e-002
1.589057e+003, 1.958711e-002
1.590985e+003, 1.667375e-002
1.592913e+003, 1.436487e-002
1.594842e+003, 1.282626e-002
1.596770e+003, 1.198995e-002
1.598699e+003, 1.153617e-002
1.600627e+003, 1.131239e-002
1.602556e+003, 1.114977e-002
1.604484e+003, 1.107281e-002
1.606413e+003, 1.112196e-002
1.608341e+003, 1.116251e-002
1.610270e+003, 1.098608e-002
1.612198e+003, 1.081020e-002
1.614127e+003, 1.056012e-002
1.616055e+003, 9.781996e-003
1.617984e+003, 1.096085e-002
1.619912e+003, 1.064521e-002
1.621840e+003, 1.021982e-002
1.623769e+003, 1.051781e-002
1.625697e+003, 1.032299e-002
1.627626e+003, 1.031953e-002
1.629554e+003, 1.035265e-002
1.631483e+003, 1.030858e-002
1.633411e+003, 9.686285e-003
1.635340e+003, 9.790024e-003
1.637268e+003, 1.068067e-002
1.639197e+003, 1.057781e-002
1.641125e+003, 9.985424e-003
1.643054e+003, 8.991270e-003
1.644982e+003, 7.220939e-003
1.646911e+003, 7.623685e-003
1.648839e+003, 7.550750e-003
1.650767e+003, 5.671704e-003
1.652696e+003, 4.769981e-003
1.654624e+003, 6.688086e-003
1.656553e+003, 6.342621e-003
1.658481e+003, 6.418372e-003
1.660410e+003, 6.036804e-003
1.662338e+003, 5.565701e-003
1.664267e+003, 5.894888e-003
1.666195e+003, 5.662913e-003
1.668124e+003, 5.095292e-003
1.670052e+003, 5.518581e-003
1.671981e+003, 5.214356e-003
1.673909e+003, 4.660217e-003
1.675838e+003, 5.596539e-003
1.677766e+003, 5.186346e-003
1.679694e+003, 5.196330e-003
1.681623e+003, 4.852098e-003
1.683551e+003, 3.567240e-003
1.685480e+003, 5.198619e-003
1.687408e+003, 4.829611e-003
1.689337e+003, 5.233578e-003
1.691265e+003, 5.112892e-003
1.693194e+003, 4.253681e-003
1.695122e+003, 2.987409e-003
1.697051e+003, 4.623270e-003
1.698979e+003, 2.661356e-003
1.700908e+003, 4.846304e-003
1.702836e+003, 4.050644e-003
1.704765e+003, 4.012262e-003
1.706693e+003, 3.960164e-003
1.708621e+003, 3.475900e-003
1.710550e+003, 3.618141e-003
1.712478e+003, 3.233644e-003
1.714407e+003, 2.878884e-003
1.716335e+003, 2.099242e-003
1.718264e+003, 3.047231e-003
1.720192e+003, 3.178982e-003
1.722121e+003, 2.684714e-003
1.724049e+003, 2.575336e-003
1.725978e+003, 2.481792e-003
1.727906e+003, 2.351658e-003
1.729835e+003, 2.388724e-003
1.731763e+003, 1.656472e-003
1.733692e+003, 9.457910e-004
1.735620e+003, 2.286274e-003
1.737548e+003, 1.682749e-003
1.739477e+003, 1.467707e-003
1.741405e+003, 1.545400e-003
1.743334e+003, 1.097948e-003
1.745262e+003, 1.233828e-003
1.747191e+003, 1.148671e-003
1.749119e+003, 1.298511e-003
1.751048e+003, 1.217847e-003
1.752976e+003, 1.692100e-003
1.754905e+003, 1.681575e-003
1.756833e+003, 2.042323e-003
1.758762e+003, 2.189517e-003
1.760690e+003, 2.046456e-003
1.762619e+003, 2.929732e-003
1.764547e+003, 2.591877e-003
1.766475e+003, 2.344286e-003
1.768404e+003, 2.659854e-003
1.770332e+003, 2.426866e-003
1.772261e+003, 2.505347e-003
1.774189e+003, 2.913772e-003
1.776118e+003, 3.163331e-003
1.778046e+003, 3.066179e-003
1.779975e+003, 3.143627e-003
1.781903e+003, 3.460664e-003
1.783832e+003, 3.077453e-003
1.785760e+003, 3.462814e-003
1.787689e+003, 3.731727e-003
1.789617e+003, 3.907895e-003
1.791546e+003, 3.970912e-003
1.793474e+003, 4.635720e-003
1.795402e+003, 4.764139e-003
1.797331e+003, 5.199241e-003
1.799259e+003, 5.098838e-003
1.801188e+003, 5.078696e-003
1.803116e+003, 5.524039e-003
1.805045e+003, 6.214217e-003
1.806973e+003, 6.773988e-003
1.808902e+003, 6.742404e-003
1.810830e+003, 7.217479e-003
1.812759e+003, 8.358261e-003
1.814687e+003, 8.869497e-003
1.816616e+003, 8.817475e-003
1.818544e+003, 8.847775e-003
1.820473e+003, 9.666484e-003
1.822401e+003, 1.072015e-002
1.824329e+003, 1.061739e-002
1.826258e+003, 1.093221e-002
1.828186e+003, 1.015673e-002
1.830115e+003, 1.021687e-002
1.832043e+003, 9.994286e-003
1.833972e+003, 1.001926e-002
1.835900e+003, 9.709476e-003
1.837829e+003, 9.169896e-003
1.839757e+003, 8.570686e-003
1.841686e+003, 7.939518e-003
1.843614e+003, 7.001680e-003
1.845543e+003, 7.511947e-003
1.847471e+003, 6.949325e-003
1.849400e+003, 6.570510e-003
1.851328e+003, 5.976850e-003
1.853256e+003, 5.568143e-003
1.855185e+003, 4.966278e-003
1.857113e+003, 4.618872e-003
1.859042e+003, 4.499950e-003
1.860970e+003, 3.913603e-003
1.862899e+003, 4.009591e-003
1.864827e+003, 3.707272e-003
1.866756e+003, 3.282984e-003
1.868684e+003, 3.400890e-003
1.870613e+003, 3.287486e-003
1.872541e+003, 2.533757e-003
1.874470e+003, 2.647811e-003
1.876398e+003, 3.010384e-003
1.878327e+003, 3.254858e-003
1.880255e+003, 2.682647e-003
1.882183e+003, 2.411121e-003
1.884112e+003, 2.636699e-003
1.886040e+003, 2.667649e-003
1.887969e+003, 2.381298e-003
1.889897e+003, 2.725332e-003
1.891826e+003, 2.926488e-003
1.893754e+003, 2.951116e-003
1.895683e+003, 2.618427e-003
1.897611e+003, 2.329299e-003
1.899540e+003, 2.672675e-003
1.901468e+003, 2.665804e-003
1.903397e+003, 2.819350e-003
1.905325e+003, 3.219298e-003
1.907254e+003, 3.243914e-003
1.909182e+003, 3.411510e-003
1.911110e+003, 3.110169e-003
1.913039e+003, 2.129842e-003
1.914967e+003, 1.972093e-003
1.916896e+003, 2.242672e-003
1.918824e+003, 3.359165e-003
1.920753e+003, 2.808437e-003
1.922681e+003, 2.718189e-003
1.924610e+003, 2.657889e-003
1.926538e+003, 2.360624e-003
1.928467e+003, 3.436409e-003
1.930395e+003, 3.836372e-003
1.932324e+003, 3.081779e-003
1.934252e+003, 2.796206e-003
1.936181e+003, 2.227774e-003
1.938109e+003, 8.302493e-004
1.940037e+003, 1.542115e-003
1.941966e+003, 2.911405e-003
1.943894e+003, 2.938081e-003
1.945823e+003, 2.758610e-003
1.947751e+003, 2.153768e-003
1.949680e+003, 2.202268e-003
1.951608e+003, 1.602988e-003
1.953537e+003, 1.465158e-003
1.955465e+003, 1.408401e-003
1.957394e+003, 1.308331e-003
1.959322e+003, 2.320261e-003
1.961251e+003, 1.769785e-003
1.963179e+003, 1.407571e-003
1.965108e+003, 2.000201e-003
1.967036e+003, 2.759592e-003
1.968964e+003, 2.651088e-003
1.970893e+003, 1.200128e-003
1.972821e+003, 1.396605e-003
1.974750e+003, 3.655005e-003
1.976678e+003, 3.470322e-003
1.978607e+003, 3.536718e-003
1.980535e+003, 3.125009e-003
1.982464e+003, 1.677106e-003
1.984392e+003, 3.924196e-003
1.986321e+003, 5.132006e-003
1.988249e+003, 3.667744e-003
1.990178e+003, 3.963951e-003
1.992106e+003, 4.904252e-003
1.994035e+003, 3.874813e-003
1.995963e+003, 1.789816e-003
1.997891e+003, 6.466976e-004
1.999820e+003, 1.133370e-003
2.001748e+003, 8.694815e-004
2.003677e+003, -8.152031e-004
2.005605e+003, 2.706293e-004
2.007534e+003, 2.301215e-003
2.009462e+003, 2.020177e-003
2.011391e+003, 1.340485e-003
2.013319e+003, 2.293706e-003
2.015248e+003, 3.339694e-003
2.017176e+003, 3.264019e-003
2.019105e+003, 1.774165e-003
2.021033e+003, 1.474194e-003
2.022962e+003, 5.384608e-004
2.024890e+003, -1.394072e-003
2.026818e+003, -1.108986e-003
2.028747e+003, 8.347746e-004
2.030675e+003, 1.174659e-003
2.032604e+003, 1.058369e-003
2.034532e+003, 1.411085e-003
2.036461e+003, 1.782965e-003
2.038389e+003, 4.291788e-005
2.040318e+003, 4.801821e-004
2.042246e+003, 2.221093e-003
2.044175e+003, 2.364640e-003
2.046103e+003, 1.786392e-003
2.048032e+003, 1.619369e-003
2.049960e+003, 2.332950e-003
2.051889e+003, 1.920421e-003
2.053817e+003, 1.708314e-003
2.055746e+003, 2.685062e-003
2.057674e+003, 2.441478e-003
2.059603e+003, 2.811012e-003
2.061531e+003, 3.067560e-003
2.063459e+003, 2.730462e-003
2.065388e+003, 3.496367e-003
2.067316e+003, 3.750604e-003
2.069245e+003, 3.319178e-003
2.071173e+003, 2.905589e-003
2.073102e+003, 3.240407e-003
2.075030e+003, 2.947341e-003
2.076959e+003, 2.190694e-003
2.078887e+003, 2.389251e-003
2.080816e+003, 1.981969e-003
2.082744e+003, 2.444213e-003
2.084673e+003, 2.340594e-003
2.086601e+003, 2.062983e-003
2.088530e+003, 2.468044e-003
2.090458e+003, 2.156869e-003
2.092386e+003, 2.185055e-003
2.094315e+003, 2.718101e-003
2.096243e+003, 1.917728e-003
2.098172e+003, 3.074252e-003
2.100100e+003, 4.373936e-003
2.102029e+003, 3.921506e-003
2.103957e+003, 3.083291e-003
2.105886e+003, 1.829624e-003
2.107814e+003, 1.811750e-003
2.109743e+003, 1.759843e-003
2.111671e+003, 2.374631e-003
2.113600e+003, 3.870149e-003
2.115528e+003, 3.548904e-003
2.117457e+003, 2.705161e-003
2.119385e+003, 9.973355e-004
2.121313e+003, 9.111397e-004
2.123242e+003, 1.606186e-003
2.125170e+003, 1.460953e-003
2.127099e+003, 2.019686e-003
2.129027e+003, 2.131032e-003
2.130956e+003, 1.838007e-003
2.132884e+003, 1.281810e-003
2.134813e+003, 1.796387e-003
2.136741e+003, 2.343578e-003
2.138670e+003, 2.911320e-003
2.140598e+003, 2.642035e-003
2.142527e+003, 1.672852e-003
2.144455e+003, 5.152590e-004
2.146384e+003, 6.467430e-004
2.148312e+003, 5.151924e-004
2.150240e+003, 7.488308e-004
2.152169e+003, 6.777837e-004
2.154097e+003, -6.963375e-004
2.156026e+003, -1.443279e-003
2.157954e+003, -1.438429e-003
2.159883e+003, 6.304225e-004
2.161811e+003, 3.983257e-003
2.163740e+003, 5.834300e-003
2.165668e+003, 5.153970e-003
2.167597e+003, 5.579955e-003
2.169525e+003, 6.212407e-003
2.171454e+003, 6.702259e-003
2.173382e+003, 5.148295e-003
2.175311e+003, 4.145996e-003
2.177239e+003, 2.440823e-003
2.179167e+003, 1.227514e-003
2.181096e+003, 2.728758e-003
2.183024e+003, 5.198927e-003
2.184953e+003, 6.453791e-003
2.186881e+003, 5.424196e-003
2.188810e+003, 4.114949e-003
2.190738e+003, 3.613917e-003
2.192667e+003, 3.399100e-003
2.194595e+003, 4.411037e-003
2.196524e+003, 4.615872e-003
2.198452e+003, 4.077514e-003
2.200381e+003, 4.634585e-003
2.202309e+003, 6.577856e-003
2.204238e+003, 6.370813e-003
2.206166e+003, 4.077694e-003
2.208094e+003, 2.280608e-003
2.210023e+003, 3.802769e-003
2.211951e+003, 5.209343e-003
2.213880e+003, 3.651688e-003
2.215808e+003, 3.566189e-003
2.217737e+003, 4.335759e-003
2.219665e+003, 4.571184e-003
2.221594e+003, 3.716100e-003
2.223522e+003, 2.988531e-003
2.225451e+003, 3.526620e-003
2.227379e+003, 4.001508e-003
2.229308e+003, 4.338107e-003
2.231236e+003, 3.953135e-003
2.233165e+003, 2.330472e-003
2.235093e+003, 2.060273e-003
2.237021e+003, 4.092876e-003
2.238950e+003, 5.662014e-003
2.240878e+003, 5.391654e-003
2.242807e+003, 3.912873e-003
2.244735e+003, 3.417695e-003
2.246664e+003, 4.277739e-003
2.248592e+003, 4.866732e-003
2.250521e+003, 5.414188e-003
2.252449e+003, 5.441798e-003
2.254378e+003, 4.927709e-003
2.256306e+003, 4.713283e-003
2.258235e+003, 4.365129e-003
2.260163e+003, 4.446813e-003
2.262092e+003, 4.666300e-003
2.264020e+003, 4.685487e-003
2.265948e+003, 5.147962e-003
2.267877e+003, 5.156527e-003
2.269805e+003, 4.398004e-003
2.271734e+003, 4.691215e-003
2.273662e+003, 5.071796e-003
2.275591e+003, 5.397443e-003
2.277519e+003, 6.095666e-003
2.279448e+003, 5.876627e-003
2.281376e+003, 5.325016e-003
2.283305e+003, 5.200529e-003
2.285233e+003, 5.271386e-003
2.287162e+003, 5.647266e-003
2.289090e+003, 5.797775e-003
2.291019e+003, 5.854309e-003
2.292947e+003, 5.343303e-003
2.294875e+003, 5.391177e-003
2.296804e+003, 5.425045e-003
2.298732e+003, 5.321070e-003
2.300661e+003, 5.408281e-003
2.302589e+003, 5.158448e-003
2.304518e+003, 5.044254e-003
2.306446e+003, 5.137038e-003
2.308375e+003, 5.280363e-003
2.310303e+003, 5.484510e-003
2.312232e+003, 5.414961e-003
2.314160e+003, 5.270765e-003
2.316089e+003, 5.178372e-003
2.318017e+003, 5.267819e-003
2.319946e+003, 5.937382e-003
2.321874e+003, 6.476246e-003
2.323802e+003, 6.167191e-003
2.325731e+003, 5.507452e-003
2.327659e+003, 5.228291e-003
2.329588e+003, 4.924989e-003
2.331516e+003, 4.722368e-003
2.333445e+003, 5.012264e-003
2.335373e+003, 4.824433e-003
2.337302e+003, 5.236620e-003
2.339230e+003, 5.668186e-003
2.341159e+003, 5.355415e-003
2.343087e+003, 4.849968e-003
2.345016e+003, 5.359324e-003
2.346944e+003, 6.021675e-003
2.348873e+003, 5.357215e-003
2.350801e+003, 5.166938e-003
2.352729e+003, 5.279493e-003
2.354658e+003, 5.266335e-003
2.356586e+003, 5.484889e-003
2.358515e+003, 5.391954e-003
2.360443e+003, 4.986094e-003
2.362372e+003, 5.318884e-003
2.364300e+003, 6.042797e-003
2.366229e+003, 5.895171e-003
2.368157e+003, 5.572823e-003
2.370086e+003, 5.649216e-003
2.372014e+003, 5.426918e-003
2.373942e+003, 4.735261e-003
2.375871e+003, 4.339411e-003
2.377799e+003, 4.458536e-003
2.379728e+003, 4.884368e-003
2.381656e+003, 5.128855e-003
2.383585e+003, 5.527163e-003
2.385513e+003, 5.826673e-003
2.387442e+003, 5.652922e-003
2.389370e+003, 5.171488e-003
2.391299e+003, 4.588129e-003
2.393227e+003, 4.593135e-003
2.395156e+003, 5.329181e-003
2.397084e+003, 5.352486e-003
2.399012e+003, 5.665724e-003
2.400941e+003, 5.806850e-003
2.402869e+003, 5.496602e-003
2.404798e+003, 5.143448e-003
2.406726e+003, 5.222687e-003
2.408655e+003, 5.396629e-003
2.410583e+003, 5.478926e-003
2.412512e+003, 5.596979e-003
2.414440e+003, 5.851025e-003
2.416369e+003, 5.017680e-003
2.418297e+003, 5.449382e-003
2.420226e+003, 6.373148e-003
2.422154e+003, 6.076886e-003
2.424083e+003, 5.644705e-003
2.426011e+003, 5.718340e-003
2.427939e+003, 5.212638e-003
2.429868e+003, 5.285288e-003
2.431796e+003, 5.901790e-003
2.433725e+003, 6.000007e-003
2.435653e+003, 5.363809e-003
2.437582e+003, 4.923692e-003
2.439510e+003, 4.647896e-003
2.441439e+003, 4.938382e-003
2.443367e+003, 4.918686e-003
2.445296e+003, 4.794318e-003
2.447224e+003, 5.173650e-003
2.449153e+003, 5.724469e-003
2.451081e+003, 6.538470e-003
2.453010e+003, 6.753886e-003
2.454938e+003, 5.521338e-003
2.456866e+003, 5.363224e-003
2.458795e+003, 6.008371e-003
2.460723e+003, 5.736582e-003
2.462652e+003, 5.780932e-003
2.464580e+003, 6.514899e-003
2.466509e+003, 6.590229e-003
2.468437e+003, 5.700069e-003
2.470366e+003, 5.581321e-003
2.472294e+003, 5.529319e-003
2.474223e+003, 5.171623e-003
2.476151e+003, 5.623199e-003
2.478080e+003, 6.732844e-003
2.480008e+003, 6.871626e-003
2.481937e+003, 6.238068e-003
2.483865e+003, 6.041073e-003
2.485793e+003, 6.434046e-003
2.487722e+003, 6.450345e-003
2.489650e+003, 6.497492e-003
2.491579e+003, 6.807927e-003
2.493507e+003, 6.658614e-003
2.495436e+003, 6.454846e-003
2.497364e+003, 6.597237e-003
2.499293e+003, 6.616161e-003
2.501221e+003, 6.596472e-003
2.503150e+003, 7.929868e-003
2.505078e+003, 9.192515e-003
2.507007e+003, 9.047433e-003
2.508935e+003, 8.798893e-003
2.510864e+003, 9.251583e-003
2.512792e+003, 9.418907e-003
2.514720e+003, 9.329921e-003
2.516649e+003, 9.406582e-003
2.518577e+003, 1.020913e-002
2.520506e+003, 1.186176e-002
2.522434e+003, 1.290436e-002
2.524363e+003, 1.337525e-002
2.526291e+003, 1.405287e-002
2.528220e+003, 1.431609e-002
2.530148e+003, 1.396858e-002
2.532077e+003, 1.386353e-002
2.534005e+003, 1.378718e-002
2.535934e+003, 1.337146e-002
2.537862e+003, 1.373180e-002
2.539791e+003, 1.411971e-002
2.541719e+003, 1.420065e-002
2.543647e+003, 1.388438e-002
2.545576e+003, 1.362328e-002
2.547504e+003, 1.336414e-002
2.549433e+003, 1.303590e-002
2.551361e+003, 1.207011e-002
2.553290e+003, 1.296087e-002
2.555218e+003, 1.365931e-002
2.557147e+003, 1.314778e-002
2.559075e+003, 1.262814e-002
2.561004e+003, 1.180858e-002
2.562932e+003, 1.076469e-002
2.564861e+003, 1.121392e-002
2.566789e+003, 1.132269e-002
2.568718e+003, 1.136872e-002
2.570646e+003, 1.152764e-002
2.572574e+003, 1.143176e-002
2.574503e+003, 1.106314e-002
2.576431e+003, 1.074132e-002
2.578360e+003, 1.021444e-002
2.580288e+003, 9.802391e-003
2.582217e+003, 9.768948e-003
2.584145e+003, 9.220034e-003
2.586074e+003, 9.233573e-003
2.588002e+003, 9.995515e-003
2.589931e+003, 9.631115e-003
2.591859e+003, 8.661963e-003
2.593788e+003, 8.461084e-003
2.595716e+003, 9.303822e-003
2.597645e+003, 9.526849e-003
2.599573e+003, 8.848277e-003
2.601501e+003, 8.188490e-003
2.603430e+003, 8.396298e-003
2.605358e+003, 8.552961e-003
2.607287e+003, 8.606095e-003
2.609215e+003, 8.550732e-003
2.611144e+003, 8.470502e-003
2.613072e+003, 8.842903e-003
2.615001e+003, 8.699713e-003
2.616929e+003, 8.375740e-003
2.618858e+003, 8.879965e-003
2.620786e+003, 9.296640e-003
2.622715e+003, 9.207177e-003
2.624643e+003, 8.918899e-003
2.626572e+003, 9.073704e-003
2.628500e+003, 9.073423e-003
2.630428e+003, 9.324077e-003
2.632357e+003, 9.472231e-003
2.634285e+003, 8.565895e-003
2.636214e+003, 8.500829e-003
2.638142e+003, 9.034632e-003
2.640071e+003, 8.634016e-003
2.641999e+003, 8.010244e-003
2.643928e+003, 8.244351e-003
2.645856e+003, 8.235458e-003
2.647785e+003, 7.974583e-003
2.649713e+003, 8.181815e-003
2.651642e+003, 8.384169e-003
2.653570e+003, 8.301269e-003
2.655499e+003, 8.091182e-003
2.657427e+003, 7.946127e-003
2.659355e+003, 7.462728e-003
2.661284e+003, 7.117096e-003
2.663212e+003, 7.396082e-003
2.665141e+003, 7.187150e-003
2.667069e+003, 7.115898e-003
2.668998e+003, 7.037633e-003
2.670926e+003, 6.882929e-003
2.672855e+003, 6.695214e-003
2.674783e+003, 6.129107e-003
2.676712e+003, 6.189308e-003
2.678640e+003, 6.020176e-003
2.680569e+003, 6.208971e-003
2.682497e+003, 6.158227e-003
2.684426e+003, 5.745065e-003
2.686354e+003, 5.368293e-003
2.688282e+003, 5.571145e-003
2.690211e+003, 5.825776e-003
2.692139e+003, 5.541371e-003
2.694068e+003, 5.626966e-003
2.695996e+003, 5.460012e-003
2.697925e+003, 5.569688e-003
2.699853e+003, 6.298124e-003
2.701782e+003, 5.911122e-003
2.703710e+003, 4.995827e-003
2.705639e+003, 4.763674e-003
2.707567e+003, 5.707897e-003
2.709496e+003, 5.915436e-003
2.711424e+003, 6.019943e-003
2.713353e+003, 5.965047e-003
2.715281e+003, 5.835281e-003
2.717209e+003, 5.432738e-003
2.719138e+003, 5.178587e-003
2.721066e+003, 5.377438e-003
2.722995e+003, 5.612334e-003
2.724923e+003, 5.010140e-003
2.726852e+003, 4.903328e-003
2.728780e+003, 5.346426e-003
2.730709e+003, 5.411260e-003
2.732637e+003, 5.273724e-003
2.734566e+003, 5.829673e-003
2.736494e+003, 6.165228e-003
2.738423e+003, 5.972115e-003
2.740351e+003, 5.726760e-003
2.742280e+003, 6.122500e-003
2.744208e+003, 6.138277e-003
2.746136e+003, 5.905908e-003
2.748065e+003, 5.498342e-003
2.749993e+003, 5.057809e-003
2.751922e+003, 5.031711e-003
2.753850e+003, 5.212733e-003
2.755779e+003, 5.210082e-003
2.757707e+003, 5.699287e-003
2.759636e+003, 5.852234e-003
2.761564e+003, 5.643594e-003
2.763493e+003, 5.738324e-003
2.765421e+003, 6.211325e-003
2.767350e+003, 6.410403e-003
2.769278e+003, 6.151749e-003
2.771207e+003, 5.501356e-003
2.773135e+003, 5.494521e-003
2.775063e+003, 5.970193e-003
2.776992e+003, 5.556899e-003
2.778920e+003, 5.153975e-003
2.780849e+003, 5.129132e-003
2.782777e+003, 5.064967e-003
2.784706e+003, 5.220463e-003
2.786634e+003, 4.897689e-003
2.788563e+003, 5.181887e-003
2.790491e+003, 5.707738e-003
2.792420e+003, 5.699362e-003
2.794348e+003, 5.550943e-003
2.796277e+003, 5.540513e-003
2.798205e+003, 5.425555e-003
2.800134e+003, 5.035962e-003
2.802062e+003, 4.627719e-003
2.803990e+003, 5.005294e-003
2.805919e+003, 5.388211e-003
2.807847e+003, 5.532478e-003
2.809776e+003, 5.589096e-003
2.811704e+003, 5.431504e-003
2.813633e+003, 4.871716e-003
2.815561e+003, 4.451418e-003
2.817490e+003, 4.491066e-003
2.819418e+003, 4.520520e-003
2.821347e+003, 4.575755e-003
2.823275e+003, 4.700340e-003
2.825204e+003, 5.452470e-003
2.827132e+003, 6.103980e-003
2.829061e+003, 6.071843e-003
2.830989e+003, 5.563382e-003
2.832917e+003, 4.905761e-003
2.834846e+003, 5.776711e-003
2.836774e+003, 6.294841e-003
2.838703e+003, 5.581387e-003
2.840631e+003, 4.649140e-003
2.842560e+003, 3.655050e-003
2.844488e+003, 3.327312e-003
2.846417e+003, 2.713088e-003
2.848345e+003, 1.571053e-003
2.850274e+003, 1.471072e-003
2.852202e+003, 1.843043e-003
2.854131e+003, 2.384268e-003
2.856059e+003, 2.381150e-003
2.857988e+003, 2.913933e-003
2.859916e+003, 3.243466e-003
2.861844e+003, 3.851797e-003
2.863773e+003, 4.626747e-003
2.865701e+003, 5.134095e-003
2.867630e+003, 5.587623e-003
2.869558e+003, 5.391203e-003
2.871487e+003, 5.846310e-003
2.873415e+003, 6.271253e-003
2.875344e+003, 6.288972e-003
2.877272e+003, 6.508900e-003
2.879201e+003, 6.810575e-003
2.881129e+003, 7.437504e-003
2.883058e+003, 7.857712e-003
2.884986e+003, 7.829083e-003
2.886915e+003, 7.342159e-003
2.888843e+003, 7.609644e-003
2.890771e+003, 7.834010e-003
2.892700e+003, 7.441232e-003
2.894628e+003, 7.298561e-003
2.896557e+003, 7.461130e-003
2.898485e+003, 7.557156e-003
2.900414e+003, 8.489778e-003
2.902342e+003, 8.911683e-003
2.904271e+003, 9.443011e-003
2.906199e+003, 9.767882e-003
2.908128e+003, 9.739082e-003
2.910056e+003, 9.399330e-003
2.911985e+003, 9.641398e-003
2.913913e+003, 9.633915e-003
2.915842e+003, 8.736876e-003
2.917770e+003, 8.081713e-003
2.919698e+003, 7.467718e-003
2.921627e+003, 7.618548e-003
2.923555e+003, 7.986676e-003
2.925484e+003, 6.973660e-003
2.927412e+003, 6.251721e-003
2.929341e+003, 6.501683e-003
2.931269e+003, 6.531684e-003
2.933198e+003, 6.954481e-003
2.935126e+003, 7.675581e-003
2.937055e+003, 7.188240e-003
2.938983e+003, 6.884451e-003
2.940912e+003, 7.363340e-003
2.942840e+003, 7.658017e-003
2.944769e+003, 8.722481e-003
2.946697e+003, 9.562136e-003
2.948625e+003, 9.989906e-003
2.950554e+003, 1.031850e-002
2.952482e+003, 1.026770e-002
2.954411e+003, 1.039309e-002
2.956339e+003, 9.910710e-003
2.958268e+003, 9.064048e-003
2.960196e+003, 9.777169e-003
2.962125e+003, 1.007527e-002
2.964053e+003, 9.523725e-003
2.965982e+003, 9.116507e-003
2.967910e+003, 8.654078e-003
2.969839e+003, 8.454293e-003
2.971767e+003, 8.357506e-003
2.973696e+003, 8.736644e-003
2.975624e+003, 8.892906e-003
2.977552e+003, 9.199705e-003
2.979481e+003, 9.326095e-003
2.981409e+003, 8.809757e-003
2.983338e+003, 8.653796e-003
2.985266e+003, 9.827894e-003
2.987195e+003, 1.018452e-002
2.989123e+003, 1.027396e-002
2.991052e+003, 1.040997e-002
2.992980e+003, 9.557148e-003
2.994909e+003, 9.345198e-003
2.996837e+003, 1.012060e-002
2.998766e+003, 1.097870e-002
3.000694e+003, 1.126746e-002
3.002623e+003, 1.031000e-002
3.004551e+003, 1.017688e-002
3.006479e+003, 1.000011e-002
3.008408e+003, 9.879798e-003
3.010336e+003, 1.134248e-002
3.012265e+003, 1.221767e-002
3.014193e+003, 1.117871e-002
3.016122e+003, 1.135948e-002
3.018050e+003, 1.107350e-002
3.019979e+003, 1.110655e-002
3.021907e+003, 1.191831e-002
3.023836e+003, 1.196587e-002
3.025764e+003, 1.178983e-002
3.027693e+003, 1.209540e-002
3.029621e+003, 1.151680e-002
3.031550e+003, 1.107976e-002
3.033478e+003, 1.124693e-002
3.035406e+003, 1.247673e-002
3.037335e+003, 1.319021e-002
3.039263e+003, 1.274564e-002
3.041192e+003, 1.330263e-002
3.043120e+003, 1.374951e-002
3.045049e+003, 1.337172e-002
3.046977e+003, 1.333344e-002
3.048906e+003, 1.298501e-002
3.050834e+003, 1.352860e-002
3.052763e+003, 1.439950e-002
3.054691e+003, 1.434999e-002
3.056620e+003, 1.408384e-002
3.058548e+003, 1.452182e-002
3.060477e+003, 1.451143e-002
3.062405e+003, 1.459879e-002
3.064333e+003, 1.421571e-002
3.066262e+003, 1.322840e-002
3.068190e+003, 1.226881e-002
3.070119e+003, 1.221365e-002
3.072047e+003, 1.347857e-002
3.073976e+003, 1.404482e-002
3.075904e+003, 1.306808e-002
3.077833e+003, 1.283023e-002
3.079761e+003, 1.290110e-002
3.081690e+003, 1.406229e-002
3.083618e+003, 1.412305e-002
3.085547e+003, 1.436558e-002
3.087475e+003, 1.490893e-002
3.089404e+003, 1.518775e-002
3.091332e+003, 1.547410e-002
3.093260e+003, 1.514493e-002
3.095189e+003, 1.415406e-002
3.097117e+003, 1.438035e-002
3.099046e+003, 1.458505e-002
3.100974e+003, 1.476173e-002
3.102903e+003, 1.446922e-002
3.104831e+003, 1.426435e-002
3.106760e+003, 1.376069e-002
3.108688e+003, 1.501961e-002
3.110617e+003, 1.627083e-002
3.112545e+003, 1.617220e-002
3.114474e+003, 1.617896e-002
3.116402e+003, 1.682688e-002
3.118331e+003, 1.722121e-002
3.120259e+003, 1.721593e-002
3.122188e+003, 1.715528e-002
3.124116e+003, 1.707903e-002
3.126044e+003, 1.781482e-002
3.127973e+003, 1.743924e-002
3.129901e+003, 1.750014e-002
3.131830e+003, 1.769631e-002
3.133758e+003, 1.762657e-002
3.135687e+003, 1.792593e-002
3.137615e+003, 1.724873e-002
3.139544e+003, 1.748795e-002
3.141472e+003, 1.800725e-002
3.143401e+003, 1.849083e-002
3.145329e+003, 1.867447e-002
3.147258e+003, 1.864743e-002
3.149186e+003, 1.822980e-002
3.151115e+003, 1.821923e-002
3.153043e+003, 1.895000e-002
3.154971e+003, 1.853879e-002
3.156900e+003, 1.851450e-002
3.158828e+003, 1.989490e-002
3.160757e+003, 2.031887e-002
3.162685e+003, 1.933677e-002
3.164614e+003, 1.991072e-002
3.166542e+003, 2.056924e-002
3.168471e+003, 1.978584e-002
3.170399e+003, 2.017337e-002
3.172328e+003, 2.099857e-002
3.174256e+003, 2.071851e-002
3.176185e+003, 2.087246e-002
3.178113e+003, 2.178673e-002
3.180042e+003, 2.210930e-002
3.181970e+003, 2.255827e-002
3.183898e+003, 2.197848e-002
3.185827e+003, 2.120703e-002
3.187755e+003, 2.230443e-002
3.189684e+003, 2.349852e-002
3.191612e+003, 2.347534e-002
3.193541e+003, 2.264163e-002
3.195469e+003, 2.154588e-002
3.197398e+003, 2.167087e-002
3.199326e+003, 2.187051e-002
3.201255e+003, 2.236311e-002
3.203183e+003, 2.284856e-002
3.205112e+003, 2.298795e-002
3.207040e+003, 2.277768e-002
3.208969e+003, 2.264038e-002
3.210897e+003, 2.319631e-002
3.212825e+003, 2.330750e-002
3.214754e+003, 2.228070e-002
3.216682e+003, 2.196484e-002
3.218611e+003, 2.293473e-002
3.220539e+003, 2.235965e-002
3.222468e+003, 2.195036e-002
3.224396e+003, 2.245017e-002
3.226325e+003, 2.277290e-002
3.228253e+003, 2.349816e-002
3.230182e+003, 2.357063e-002
3.232110e+003, 2.280672e-002
3.234039e+003, 2.306731e-002
3.235967e+003, 2.381903e-002
3.237896e+003, 2.387422e-002
3.239824e+003, 2.365939e-002
3.241752e+003, 2.245162e-002
3.243681e+003, 2.323079e-002
3.245609e+003, 2.503217e-002
3.247538e+003, 2.516807e-002
3.249466e+003, 2.401026e-002
3.251395e+003, 2.434075e-002
3.253323e+003, 2.406127e-002
3.255252e+003, 2.311489e-002
3.257180e+003, 2.290967e-002
3.259109e+003, 2.443232e-002
3.261037e+003, 2.556524e-002
3.262966e+003, 2.580887e-002
3.264894e+003, 2.574779e-002
3.266823e+003, 2.504839e-002
3.268751e+003, 2.438422e-002
3.270679e+003, 2.466210e-002
3.272608e+003, 2.513028e-002
3.274536e+003, 2.530856e-002
3.276465e+003, 2.528047e-002
3.278393e+003, 2.457745e-002
3.280322e+003, 2.397528e-002
3.282250e+003, 2.478782e-002
3.284179e+003, 2.587270e-002
3.286107e+003, 2.556215e-002
3.288036e+003, 2.501290e-002
3.289964e+003, 2.525952e-002
3.291893e+003, 2.559139e-002
3.293821e+003, 2.685837e-002
3.295750e+003, 2.706526e-002
3.297678e+003, 2.672714e-002
3.299606e+003, 2.688348e-002
3.301535e+003, 2.618564e-002
3.303463e+003, 2.543348e-002
3.305392e+003, 2.680770e-002
3.307320e+003, 2.742408e-002
3.309249e+003, 2.757619e-002
3.311177e+003, 2.716128e-002
3.313106e+003, 2.685124e-002
3.315034e+003, 2.740373e-002
3.316963e+003, 2.694635e-002
3.318891e+003, 2.625464e-002
3.320820e+003, 2.609437e-002
3.322748e+003, 2.615632e-002
3.324677e+003, 2.758223e-002
3.326605e+003, 2.722049e-002
3.328533e+003, 2.585655e-002
3.330462e+003, 2.691873e-002
3.332390e+003, 2.827836e-002
3.334319e+003, 2.757667e-002
3.336247e+003, 2.837247e-002
3.338176e+003, 2.927022e-002
3.340104e+003, 2.828948e-002
3.342033e+003, 2.790652e-002
3.343961e+003, 2.754771e-002
3.345890e+003, 2.682632e-002
3.347818e+003, 2.768682e-002
3.349747e+003, 2.896354e-002
3.351675e+003, 2.895548e-002
3.353604e+003, 2.902542e-002
3.355532e+003, 3.002734e-002
3.357460e+003, 2.980610e-002
3.359389e+003, 2.978665e-002
3.361317e+003, 2.934747e-002
3.363246e+003, 2.897701e-002
3.365174e+003, 2.996579e-002
3.367103e+003, 3.120907e-002
3.369031e+003, 3.077968e-002
3.370960e+003, 2.991716e-002
3.372888e+003, 2.973281e-002
3.374817e+003, 3.062501e-002
3.376745e+003, 3.088882e-002
3.378674e+003, 3.081275e-002
3.380602e+003, 3.092385e-002
3.382531e+003, 3.046514e-002
3.384459e+003, 2.985997e-002
3.386387e+003, 2.931417e-002
3.388316e+003, 2.986632e-002
3.390244e+003, 3.058809e-002
3.392173e+003, 3.015927e-002
3.394101e+003, 3.009956e-002
3.396030e+003, 3.074566e-002
3.397958e+003, 3.299453e-002
3.399887e+003, 3.260632e-002
3.401815e+003, 3.094199e-002
3.403744e+003, 3.060872e-002
3.405672e+003, 3.115980e-002
3.407601e+003, 3.117580e-002
3.409529e+003, 3.218391e-002
3.411458e+003, 3.245278e-002
3.413386e+003, 3.153246e-002
3.415314e+003, 3.196199e-002
3.417243e+003, 3.238249e-002
3.419171e+003, 3.182465e-002
3.421100e+003, 3.126571e-002
3.423028e+003, 3.197911e-002
3.424957e+003, 3.253689e-002
3.426885e+003, 3.239573e-002
3.428814e+003, 3.188359e-002
3.430742e+003, 3.130893e-002
3.432671e+003, 3.089282e-002
3.434599e+003, 3.132701e-002
3.436528e+003, 3.188683e-002
3.438456e+003, 3.219020e-002
3.440385e+003, 3.339807e-002
3.442313e+003, 3.437018e-002
3.444241e+003, 3.395002e-002
3.446170e+003, 3.437424e-002
3.448098e+003, 3.639989e-002
3.450027e+003, 3.641297e-002
3.451955e+003, 3.397072e-002
3.453884e+003, 3.423828e-002
3.455812e+003, 3.472864e-002
3.457741e+003, 3.432081e-002
3.459669e+003, 3.345113e-002
3.461598e+003, 3.296753e-002
3.463526e+003, 3.361963e-002
3.465455e+003, 3.336940e-002
3.467383e+003, 3.252538e-002
3.469312e+003, 3.289665e-002
3.471240e+003, 3.256265e-002
3.473168e+003, 3.248716e-002
3.475097e+003, 3.291650e-002
3.477025e+003, 3.241234e-002
3.478954e+003, 3.277297e-002
3.480882e+003, 3.327232e-002
3.482811e+003, 3.255517e-002
3.484739e+003, 3.253251e-002
3.486668e+003, 3.467089e-002
3.488596e+003, 3.511422e-002
3.490525e+003, 3.458560e-002
3.492453e+003, 3.456685e-002
3.494382e+003, 3.471175e-002
3.496310e+003, 3.400953e-002
3.498239e+003, 3.274999e-002
3.500167e+003, 3.323855e-002
3.502095e+003, 3.430980e-002
3.504024e+003, 3.409620e-002
3.505952e+003, 3.352059e-002
3.507881e+003, 3.368646e-002
3.509809e+003, 3.496862e-002
3.511738e+003, 3.563438e-002
3.513666e+003, 3.491835e-002
3.515595e+003, 3.274659e-002
3.517523e+003, 3.295909e-002
3.519452e+003, 3.436561e-002
3.521380e+003, 3.492530e-002
3.523309e+003, 3.551045e-002
3.525237e+003, 3.442230e-002
3.527166e+003, 3.294414e-002
3.529094e+003, 3.340469e-002
3.531022e+003, 3.440658e-002
3.532951e+003, 3.396815e-002
3.534879e+003, 3.271433e-002
3.536808e+003, 3.222526e-002
3.538736e+003, 3.241730e-002
3.540665e+003, 3.163119e-002
3.542593e+003, 3.036082e-002
3.544522e+003, 2.997262e-002
3.546450e+003, 3.090613e-002
3.548379e+003, 3.148498e-002
3.550307e+003, 3.179357e-002
3.552236e+003, 3.260331e-002
3.554164e+003, 3.415589e-002
3.556093e+003, 3.549019e-002
3.558021e+003, 3.278860e-002
3.559949e+003, 3.074571e-002
3.561878e+003, 3.102533e-002
3.563806e+003, 3.133274e-002
3.565735e+003, 2.875816e-002
3.567663e+003, 2.829759e-002
3.569592e+003, 2.964245e-002
3.571520e+003, 2.963599e-002
3.573449e+003, 3.030333e-002
3.575377e+003, 3.017330e-002
3.577306e+003, 2.970398e-002
3.579234e+003, 2.996730e-002
3.581163e+003, 2.953740e-002
3.583091e+003, 3.046890e-002
3.585020e+003, 3.065930e-002
3.586948e+003, 2.872210e-002
3.588876e+003, 2.835935e-002
3.590805e+003, 2.863259e-002
3.592733e+003, 2.798890e-002
3.594662e+003, 2.785802e-002
3.596590e+003, 2.863400e-002
3.598519e+003, 2.816142e-002
3.600447e+003, 2.682658e-002
3.602376e+003, 2.588231e-002
3.604304e+003, 2.632696e-002
3.606233e+003, 2.678125e-002
3.608161e+003, 2.603298e-002
3.610090e+003, 2.733140e-002
3.612018e+003, 2.658710e-002
3.613947e+003, 2.758401e-002
3.615875e+003, 2.638926e-002
3.617803e+003, 2.509722e-002
3.619732e+003, 2.525248e-002
3.621660e+003, 2.569200e-002
3.623589e+003, 2.535705e-002
3.625517e+003, 2.419612e-002
3.627446e+003, 2.140895e-002
3.629374e+003, 2.384003e-002
3.631303e+003, 2.461440e-002
3.633231e+003, 2.439918e-002
3.635160e+003, 2.328177e-002
3.637088e+003, 2.194128e-002
3.639017e+003, 2.439368e-002
3.640945e+003, 2.632157e-002
3.642874e+003, 2.449624e-002
3.644802e+003, 2.318779e-002
3.646730e+003, 2.363816e-002
3.648659e+003, 2.167527e-002
3.650587e+003, 2.134840e-002
3.652516e+003, 2.188520e-002
3.654444e+003, 2.011630e-002
3.656373e+003, 2.232299e-002
3.658301e+003, 2.354673e-002
3.660230e+003, 2.288730e-002
3.662158e+003, 2.325157e-002
3.664087e+003, 2.157194e-002
3.666015e+003, 2.064312e-002
3.667944e+003, 2.017682e-002
3.669872e+003, 1.917578e-002
3.671801e+003, 2.143808e-002
3.673729e+003, 1.889583e-002
3.675657e+003, 2.022468e-002
3.677586e+003, 2.235466e-002
3.679514e+003, 2.526476e-002
3.681443e+003, 2.420756e-002
3.683371e+003, 2.091304e-002
3.685300e+003, 2.077836e-002
3.687228e+003, 2.011684e-002
3.689157e+003, 2.195642e-002
3.691085e+003, 2.205927e-002
3.693014e+003, 2.103951e-002
3.694942e+003, 2.265678e-002
3.696871e+003, 2.451410e-002
3.698799e+003, 2.311315e-002
3.700728e+003, 2.098645e-002
3.702656e+003, 2.136999e-002
3.704584e+003, 2.102219e-002
3.706513e+003, 2.231892e-002
3.708441e+003, 2.280029e-002
3.710370e+003, 2.160246e-002
3.712298e+003, 2.028498e-002
3.714227e+003, 2.067116e-002
3.716155e+003, 2.368172e-002
3.718084e+003, 2.392217e-002
3.720012e+003, 2.204022e-002
3.721941e+003, 2.082310e-002
3.723869e+003, 2.187595e-002
3.725798e+003, 2.316002e-002
3.727726e+003, 2.095520e-002
3.729655e+003, 1.799299e-002
3.731583e+003, 1.898997e-002
3.733511e+003, 2.136590e-002
3.735440e+003, 2.043332e-002
3.737368e+003, 2.136545e-002
3.739297e+003, 2.224374e-002
3.741225e+003, 2.127841e-002
3.743154e+003, 1.616696e-002
3.745082e+003, 2.017447e-002
3.747011e+003, 1.945738e-002
3.748939e+003, 2.029926e-002
3.750868e+003, 1.881353e-002
3.752796e+003, 2.093143e-002
3.754725e+003, 2.072884e-002
3.756653e+003, 2.085488e-002
3.758582e+003, 2.093261e-002
3.760510e+003, 2.177737e-002
3.762438e+003, 2.184817e-002
3.764367e+003, 2.175562e-002
3.766295e+003, 2.188994e-002
3.768224e+003, 2.216363e-002
3.770152e+003, 2.357360e-002
3.772081e+003, 2.256867e-002
3.774009e+003, 2.427210e-002
3.775938e+003, 2.415581e-002
3.777866e+003, 2.290685e-002
3.779795e+003, 2.302512e-002
3.781723e+003, 2.344104e-002
3.783652e+003, 2.542362e-002
3.785580e+003, 2.445010e-002
3.787509e+003, 2.327948e-002
3.789437e+003, 2.454747e-002
3.791365e+003, 2.361577e-002
3.793294e+003, 2.325284e-002
3.795222e+003, 2.430826e-002
3.797151e+003, 2.446044e-002
3.799079e+003, 2.147952e-002
3.801008e+003, 2.036497e-002
3.802936e+003, 2.243337e-002
3.804865e+003, 2.258238e-002
3.806793e+003, 2.366676e-002
3.808722e+003, 2.412389e-002
3.810650e+003, 2.365497e-002
3.812579e+003, 2.359370e-002
3.814507e+003, 2.063873e-002
3.816436e+003, 2.236074e-002
3.818364e+003, 2.039401e-002
3.820292e+003, 2.022631e-002
3.822221e+003, 2.303178e-002
3.824149e+003, 2.179810e-002
3.826078e+003, 2.162471e-002
3.828006e+003, 2.355717e-002
3.829935e+003, 2.346191e-002
3.831863e+003, 2.433581e-002
3.833792e+003, 2.261556e-002
3.835720e+003, 1.947717e-002
3.837649e+003, 1.837485e-002
3.839577e+003, 2.196000e-002
3.841506e+003, 2.242757e-002
3.843434e+003, 2.364188e-002
3.845363e+003, 2.631340e-002
3.847291e+003, 2.503010e-002
3.849219e+003, 2.346691e-002
3.851148e+003, 2.131648e-002
3.853076e+003, 2.136546e-002
3.855005e+003, 2.554072e-002
3.856933e+003, 2.407642e-002
3.858862e+003, 2.459807e-002
3.860790e+003, 2.411240e-002
3.862719e+003, 2.559645e-002
3.864647e+003, 2.648948e-002
3.866576e+003, 2.545337e-002
3.868504e+003, 2.168497e-002
3.870433e+003, 2.313107e-002
3.872361e+003, 2.279789e-002
3.874290e+003, 2.508754e-002
3.876218e+003, 2.574159e-002
3.878146e+003, 2.596970e-002
3.880075e+003, 2.648122e-002
3.882003e+003, 2.547236e-002
3.883932e+003, 2.229305e-002
3.885860e+003, 2.316383e-002
3.887789e+003, 2.407034e-002
3.889717e+003, 2.448964e-002
3.891646e+003, 2.490379e-002
3.893574e+003, 2.245970e-002
3.895503e+003, 2.356180e-002
3.897431e+003, 2.504934e-002
3.899360e+003, 2.746875e-002
3.901288e+003, 2.730690e-002
3.903217e+003, 2.697203e-002
3.905145e+003, 2.743086e-002
3.907073e+003, 2.707996e-002
3.909002e+003, 2.706439e-002
3.910930e+003, 2.828097e-002
3.912859e+003, 2.730119e-002
3.914787e+003, 2.741878e-002
3.916716e+003, 2.783442e-002
3.918644e+003, 2.740998e-002
3.920573e+003, 2.762608e-002
3.922501e+003, 2.769135e-002
3.924430e+003, 2.637656e-002
3.926358e+003, 2.484052e-002
3.928287e+003, 2.623120e-002
3.930215e+003, 2.518999e-002
3.932144e+003, 2.527442e-002
3.934072e+003, 2.404641e-002
3.936000e+003, 2.232664e-002
3.937929e+003, 2.384139e-002
3.939857e+003, 2.615328e-002
3.941786e+003, 2.509543e-002
3.943714e+003, 2.537914e-002
3.945643e+003, 2.648501e-002
3.947571e+003, 2.767683e-002
3.949500e+003, 2.892122e-002
3.951428e+003, 2.673564e-002
3.953357e+003, 2.483434e-002
3.955285e+003, 2.762261e-002
3.957214e+003, 2.996651e-002
3.959142e+003, 2.763201e-002
3.961071e+003, 2.593420e-002
3.962999e+003, 2.621160e-002
3.964927e+003, 2.756558e-002
3.966856e+003, 2.641135e-002
3.968784e+003, 2.662646e-002
3.970713e+003, 2.727750e-002
3.972641e+003, 2.662371e-002
3.974570e+003, 2.565804e-002
3.976498e+003, 2.717507e-002
3.978427e+003, 2.937714e-002
3.980355e+003, 2.689525e-002
3.982284e+003, 2.481212e-002
3.984212e+003, 2.572689e-002
3.986141e+003, 2.661093e-002
3.988069e+003, 2.713123e-002
3.989998e+003, 2.900454e-002
3.991926e+003, 2.875132e-002
3.993854e+003, 2.949226e-002
3.995783e+003, 3.045592e-002
3.997711e+003, 3.012917e-002
3.999640e+003, 3.013694e-002
##END=



