##NAMES=Nahcolite
##RRUFFID=R070237
##IDEAL CHEMISTRY=NaHCO_3_
##LOCALITY=Bureau of Mines Oil Shale Mine, East Rifle Creek area, Garfield County, Colorado, USA
##OWNER=RRUFF
##SOURCE=Michael Scott
##DESCRIPTION=Clear, colorless to brownish, massive
##STATUS=The identification of this mineral has been confirmed by X-ray diffraction and chemical analysis
##URL=rruff.info/R070237
##MEASURED CHEMISTRY=Na_1.00_HCO_3_ ; H and C not analyzed but assumed by stoichiometry
3.741225e+002, 1.025472e-002
3.760510e+002, 1.199866e-002
3.779795e+002, 1.378680e-002
3.799079e+002, 1.966380e-002
3.818364e+002, 2.566592e-002
3.837649e+002, 2.118941e-002
3.856933e+002, 1.958696e-002
3.876218e+002, 1.959477e-002
3.895503e+002, 2.086674e-002
3.914787e+002, 1.975363e-002
3.934072e+002, 1.889832e-002
3.953357e+002, 1.923408e-002
3.972641e+002, 2.096607e-002
3.991926e+002, 1.790140e-002
4.011211e+002, 1.576293e-002
4.030495e+002, 1.254918e-002
4.049780e+002, 1.227118e-002
4.069065e+002, 1.325358e-002
4.088349e+002, 1.533596e-002
4.107634e+002, 1.618027e-002
4.126919e+002, 1.360912e-002
4.146203e+002, 1.304835e-002
4.165488e+002, 1.357671e-002
4.184773e+002, 1.339436e-002
4.204057e+002, 1.211648e-002
4.223342e+002, 1.140578e-002
4.242627e+002, 1.146536e-002
4.261911e+002, 1.243198e-002
4.281196e+002, 1.314163e-002
4.300481e+002, 1.202490e-002
4.319765e+002, 1.111799e-002
4.339050e+002, 1.123928e-002
4.358335e+002, 1.218204e-002
4.377619e+002, 1.278813e-002
4.396904e+002, 1.257618e-002
4.416189e+002, 1.209980e-002
4.435473e+002, 1.185709e-002
4.454758e+002, 1.122038e-002
4.474043e+002, 1.163234e-002
4.493327e+002, 1.242306e-002
4.512612e+002, 1.255164e-002
4.531897e+002, 1.267679e-002
4.551181e+002, 1.276308e-002
4.570466e+002, 1.246622e-002
4.589751e+002, 1.186641e-002
4.609035e+002, 1.148006e-002
4.628320e+002, 1.155251e-002
4.647605e+002, 1.208230e-002
4.666889e+002, 1.202506e-002
4.686174e+002, 1.265224e-002
4.705459e+002, 1.345009e-002
4.724743e+002, 1.333134e-002
4.744028e+002, 1.297189e-002
4.763313e+002, 1.311626e-002
4.782597e+002, 1.352766e-002
4.801882e+002, 1.362734e-002
4.821167e+002, 1.336685e-002
4.840451e+002, 1.382842e-002
4.859736e+002, 1.448177e-002
4.879021e+002, 1.439199e-002
4.898305e+002, 1.466125e-002
4.917590e+002, 1.485159e-002
4.936875e+002, 1.468466e-002
4.956159e+002, 1.497082e-002
4.975444e+002, 1.510223e-002
4.994729e+002, 1.488640e-002
5.014013e+002, 1.504117e-002
5.033298e+002, 1.533992e-002
5.052583e+002, 1.549729e-002
5.071867e+002, 1.622060e-002
5.091152e+002, 1.620545e-002
5.110437e+002, 1.613093e-002
5.129721e+002, 1.653282e-002
5.149006e+002, 1.711315e-002
5.168290e+002, 1.747134e-002
5.187575e+002, 1.713748e-002
5.206860e+002, 1.699472e-002
5.226144e+002, 1.705107e-002
5.245429e+002, 1.695463e-002
5.264714e+002, 1.775637e-002
5.283998e+002, 1.847801e-002
5.303283e+002, 1.886847e-002
5.322568e+002, 1.890003e-002
5.341852e+002, 1.903243e-002
5.361137e+002, 1.956534e-002
5.380422e+002, 1.975582e-002
5.399706e+002, 1.982487e-002
5.418991e+002, 2.041554e-002
5.438276e+002, 2.046864e-002
5.457560e+002, 2.058412e-002
5.476845e+002, 2.085408e-002
5.496130e+002, 2.101097e-002
5.515414e+002, 2.101816e-002
5.534699e+002, 2.131166e-002
5.553984e+002, 2.131567e-002
5.573268e+002, 2.199158e-002
5.592553e+002, 2.223915e-002
5.611838e+002, 2.274021e-002
5.631122e+002, 2.346158e-002
5.650407e+002, 2.369689e-002
5.669692e+002, 2.372109e-002
5.688976e+002, 2.419519e-002
5.708261e+002, 2.478554e-002
5.727546e+002, 2.531929e-002
5.746830e+002, 2.592132e-002
5.766115e+002, 2.614617e-002
5.785400e+002, 2.645986e-002
5.804684e+002, 2.690576e-002
5.823969e+002, 2.775544e-002
5.843254e+002, 2.815318e-002
5.862538e+002, 2.878172e-002
5.881823e+002, 2.914060e-002
5.901108e+002, 2.941581e-002
5.920392e+002, 3.005143e-002
5.939677e+002, 3.058898e-002
5.958962e+002, 3.148337e-002
5.978246e+002, 3.230736e-002
5.997531e+002, 3.320440e-002
6.016816e+002, 3.399289e-002
6.036100e+002, 3.471177e-002
6.055385e+002, 3.545856e-002
6.074670e+002, 3.620421e-002
6.093954e+002, 3.672859e-002
6.113239e+002, 3.752535e-002
6.132524e+002, 3.853866e-002
6.151808e+002, 3.986706e-002
6.171093e+002, 4.109695e-002
6.190378e+002, 4.223735e-002
6.209662e+002, 4.323836e-002
6.228947e+002, 4.439919e-002
6.248232e+002, 4.551852e-002
6.267516e+002, 4.686004e-002
6.286801e+002, 4.843501e-002
6.306086e+002, 5.024077e-002
6.325370e+002, 5.189921e-002
6.344655e+002, 5.398950e-002
6.363940e+002, 5.643606e-002
6.383224e+002, 5.907647e-002
6.402509e+002, 6.256197e-002
6.421794e+002, 6.778840e-002
6.441078e+002, 7.111312e-002
6.460363e+002, 7.184897e-002
6.479648e+002, 7.498435e-002
6.498932e+002, 8.075847e-002
6.518217e+002, 8.924033e-002
6.537502e+002, 1.044652e-001
6.556786e+002, 1.309113e-001
6.576071e+002, 1.453438e-001
6.595356e+002, 1.137448e-001
6.614641e+002, 8.028427e-002
6.633925e+002, 7.361331e-002
6.653210e+002, 7.884410e-002
6.672495e+002, 8.632780e-002
6.691779e+002, 9.408022e-002
6.711064e+002, 1.024204e-001
6.730349e+002, 1.117224e-001
6.749633e+002, 1.220948e-001
6.768918e+002, 1.333869e-001
6.788203e+002, 1.459275e-001
6.807487e+002, 1.602721e-001
6.826772e+002, 1.767046e-001
6.846057e+002, 1.940773e-001
6.865341e+002, 2.103363e-001
6.884626e+002, 2.214689e-001
6.903911e+002, 2.259941e-001
6.923195e+002, 2.250400e-001
6.942480e+002, 2.208711e-001
6.961765e+002, 2.141752e-001
6.981049e+002, 2.010642e-001
7.000334e+002, 1.851800e-001
7.019619e+002, 1.713040e-001
7.038903e+002, 1.584215e-001
7.058188e+002, 1.451623e-001
7.077473e+002, 1.314963e-001
7.096757e+002, 1.176431e-001
7.116042e+002, 1.041560e-001
7.135327e+002, 9.101985e-002
7.154611e+002, 7.815898e-002
7.173896e+002, 6.568539e-002
7.193181e+002, 5.368028e-002
7.212465e+002, 4.269143e-002
7.231750e+002, 3.389549e-002
7.251035e+002, 2.742633e-002
7.270319e+002, 2.257302e-002
7.289604e+002, 1.928942e-002
7.308889e+002, 1.716772e-002
7.328173e+002, 1.555697e-002
7.347458e+002, 1.437534e-002
7.366743e+002, 1.364120e-002
7.386027e+002, 1.301449e-002
7.405312e+002, 1.251102e-002
7.424597e+002, 1.214782e-002
7.443881e+002, 1.181749e-002
7.463166e+002, 1.167780e-002
7.482451e+002, 1.169324e-002
7.501735e+002, 1.187169e-002
7.521020e+002, 1.195533e-002
7.540305e+002, 1.190436e-002
7.559589e+002, 1.207670e-002
7.578874e+002, 1.247058e-002
7.598159e+002, 1.293597e-002
7.617443e+002, 1.322282e-002
7.636728e+002, 1.349253e-002
7.656013e+002, 1.415000e-002
7.675297e+002, 1.492480e-002
7.694582e+002, 1.530373e-002
7.713867e+002, 1.559472e-002
7.733151e+002, 1.590274e-002
7.752436e+002, 1.638401e-002
7.771721e+002, 1.715699e-002
7.791005e+002, 1.824058e-002
7.810290e+002, 1.910614e-002
7.829575e+002, 1.978474e-002
7.848859e+002, 2.062700e-002
7.868144e+002, 2.199074e-002
7.887429e+002, 2.334282e-002
7.906713e+002, 2.478559e-002
7.925998e+002, 2.645303e-002
7.945283e+002, 2.826238e-002
7.964567e+002, 3.057705e-002
7.983852e+002, 3.347213e-002
8.003137e+002, 3.689174e-002
8.022421e+002, 4.083984e-002
8.041706e+002, 4.567864e-002
8.060991e+002, 5.135872e-002
8.080275e+002, 5.827103e-002
8.099560e+002, 6.762277e-002
8.118845e+002, 7.681263e-002
8.138129e+002, 8.085617e-002
8.157414e+002, 8.303122e-002
8.176699e+002, 8.982272e-002
8.195983e+002, 1.011979e-001
8.215268e+002, 1.159550e-001
8.234553e+002, 1.339325e-001
8.253837e+002, 1.553785e-001
8.273122e+002, 1.806216e-001
8.292407e+002, 2.078625e-001
8.311691e+002, 2.301558e-001
8.330976e+002, 2.364581e-001
8.350261e+002, 2.228448e-001
8.369545e+002, 1.951759e-001
8.388830e+002, 1.621730e-001
8.408115e+002, 1.293190e-001
8.427399e+002, 9.977382e-002
8.446684e+002, 7.519577e-002
8.465969e+002, 5.644414e-002
8.485253e+002, 4.415786e-002
8.504538e+002, 3.749574e-002
8.523823e+002, 3.411111e-002
8.543107e+002, 3.242569e-002
8.562392e+002, 3.137095e-002
8.581677e+002, 3.076504e-002
8.600961e+002, 3.029758e-002
8.620246e+002, 3.007078e-002
8.639531e+002, 2.994847e-002
8.658815e+002, 2.999401e-002
8.678100e+002, 3.008841e-002
8.697385e+002, 3.007492e-002
8.716669e+002, 3.032105e-002
8.735954e+002, 3.073306e-002
8.755239e+002, 3.125921e-002
8.774523e+002, 3.173907e-002
8.793808e+002, 3.207295e-002
8.813093e+002, 3.271406e-002
8.832377e+002, 3.344985e-002
8.851662e+002, 3.424363e-002
8.870947e+002, 3.509075e-002
8.890231e+002, 3.578540e-002
8.909516e+002, 3.634334e-002
8.928801e+002, 3.702621e-002
8.948085e+002, 3.786903e-002
8.967370e+002, 3.854750e-002
8.986655e+002, 3.934544e-002
9.005939e+002, 4.017400e-002
9.025224e+002, 4.086784e-002
9.044509e+002, 4.149626e-002
9.063793e+002, 4.222886e-002
9.083078e+002, 4.280435e-002
9.102363e+002, 4.332109e-002
9.121647e+002, 4.393708e-002
9.140932e+002, 4.463891e-002
9.160217e+002, 4.554949e-002
9.179501e+002, 4.633028e-002
9.198786e+002, 4.702934e-002
9.218071e+002, 4.792158e-002
9.237355e+002, 4.888595e-002
9.256640e+002, 4.974980e-002
9.275925e+002, 5.060184e-002
9.295209e+002, 5.168197e-002
9.314494e+002, 5.285778e-002
9.333779e+002, 5.404043e-002
9.353063e+002, 5.518674e-002
9.372348e+002, 5.628974e-002
9.391633e+002, 5.767323e-002
9.410917e+002, 5.916723e-002
9.430202e+002, 6.068693e-002
9.449487e+002, 6.250495e-002
9.468771e+002, 6.456323e-002
9.488056e+002, 6.702392e-002
9.507341e+002, 6.971017e-002
9.526625e+002, 7.256589e-002
9.545910e+002, 7.592166e-002
9.565195e+002, 7.967863e-002
9.584479e+002, 8.395255e-002
9.603764e+002, 8.896659e-002
9.623049e+002, 9.477446e-002
9.642333e+002, 1.014845e-001
9.661618e+002, 1.090797e-001
9.680903e+002, 1.175841e-001
9.700187e+002, 1.271117e-001
9.719472e+002, 1.375140e-001
9.738757e+002, 1.483065e-001
9.758041e+002, 1.596024e-001
9.777326e+002, 1.712336e-001
9.796611e+002, 1.827452e-001
9.815895e+002, 1.940503e-001
9.835180e+002, 2.046503e-001
9.854465e+002, 2.141341e-001
9.873749e+002, 2.220855e-001
9.893034e+002, 2.281320e-001
9.912319e+002, 2.315660e-001
9.931603e+002, 2.323519e-001
9.950888e+002, 2.302639e-001
9.970173e+002, 2.251176e-001
9.989457e+002, 2.175724e-001
1.000874e+003, 2.082695e-001
1.002803e+003, 1.972171e-001
1.004731e+003, 1.847665e-001
1.006660e+003, 1.717494e-001
1.008588e+003, 1.591147e-001
1.010517e+003, 1.469595e-001
1.012445e+003, 1.356834e-001
1.014373e+003, 1.255302e-001
1.016302e+003, 1.169443e-001
1.018230e+003, 1.100040e-001
1.020159e+003, 1.050029e-001
1.022087e+003, 1.015611e-001
1.024016e+003, 1.006503e-001
1.025944e+003, 1.042951e-001
1.027873e+003, 1.158529e-001
1.029801e+003, 1.387115e-001
1.031730e+003, 1.598516e-001
1.033658e+003, 1.442449e-001
1.035587e+003, 1.067320e-001
1.037515e+003, 8.582163e-002
1.039443e+003, 8.276077e-002
1.041372e+003, 9.097861e-002
1.043300e+003, 1.091406e-001
1.045229e+003, 1.309338e-001
1.047157e+003, 1.343088e-001
1.049086e+003, 1.112355e-001
1.051014e+003, 8.471206e-002
1.052943e+003, 6.960107e-002
1.054871e+003, 6.285343e-002
1.056800e+003, 6.037279e-002
1.058728e+003, 5.958794e-002
1.060657e+003, 5.963846e-002
1.062585e+003, 6.018235e-002
1.064514e+003, 6.098108e-002
1.066442e+003, 6.186409e-002
1.068370e+003, 6.282450e-002
1.070299e+003, 6.390278e-002
1.072227e+003, 6.484085e-002
1.074156e+003, 6.564815e-002
1.076084e+003, 6.647924e-002
1.078013e+003, 6.749212e-002
1.079941e+003, 6.869926e-002
1.081870e+003, 6.960110e-002
1.083798e+003, 7.043174e-002
1.085727e+003, 7.151499e-002
1.087655e+003, 7.256378e-002
1.089584e+003, 7.355401e-002
1.091512e+003, 7.443216e-002
1.093441e+003, 7.538558e-002
1.095369e+003, 7.644130e-002
1.097297e+003, 7.754696e-002
1.099226e+003, 7.875145e-002
1.101154e+003, 7.994772e-002
1.103083e+003, 8.084261e-002
1.105011e+003, 8.174654e-002
1.106940e+003, 8.284263e-002
1.108868e+003, 8.395802e-002
1.110797e+003, 8.507805e-002
1.112725e+003, 8.629907e-002
1.114654e+003, 8.745983e-002
1.116582e+003, 8.849531e-002
1.118511e+003, 8.959527e-002
1.120439e+003, 9.056748e-002
1.122368e+003, 9.142569e-002
1.124296e+003, 9.253644e-002
1.126224e+003, 9.358316e-002
1.128153e+003, 9.451278e-002
1.130081e+003, 9.547384e-002
1.132010e+003, 9.634107e-002
1.133938e+003, 9.730865e-002
1.135867e+003, 9.837343e-002
1.137795e+003, 9.943070e-002
1.139724e+003, 1.005570e-001
1.141652e+003, 1.017189e-001
1.143581e+003, 1.028072e-001
1.145509e+003, 1.040169e-001
1.147438e+003, 1.052778e-001
1.149366e+003, 1.065548e-001
1.151295e+003, 1.076690e-001
1.153223e+003, 1.089320e-001
1.155151e+003, 1.102706e-001
1.157080e+003, 1.115790e-001
1.159008e+003, 1.129829e-001
1.160937e+003, 1.146030e-001
1.162865e+003, 1.163791e-001
1.164794e+003, 1.181780e-001
1.166722e+003, 1.199535e-001
1.168651e+003, 1.219217e-001
1.170579e+003, 1.241537e-001
1.172508e+003, 1.263219e-001
1.174436e+003, 1.284011e-001
1.176365e+003, 1.308012e-001
1.178293e+003, 1.332066e-001
1.180222e+003, 1.355910e-001
1.182150e+003, 1.380636e-001
1.184078e+003, 1.407331e-001
1.186007e+003, 1.434450e-001
1.187935e+003, 1.462034e-001
1.189864e+003, 1.489721e-001
1.191792e+003, 1.517397e-001
1.193721e+003, 1.545597e-001
1.195649e+003, 1.571576e-001
1.197578e+003, 1.598308e-001
1.199506e+003, 1.626878e-001
1.201435e+003, 1.657084e-001
1.203363e+003, 1.687389e-001
1.205292e+003, 1.716666e-001
1.207220e+003, 1.748207e-001
1.209149e+003, 1.782224e-001
1.211077e+003, 1.816774e-001
1.213005e+003, 1.850442e-001
1.214934e+003, 1.885055e-001
1.216862e+003, 1.920193e-001
1.218791e+003, 1.954401e-001
1.220719e+003, 1.991585e-001
1.222648e+003, 2.029721e-001
1.224576e+003, 2.064894e-001
1.226505e+003, 2.102599e-001
1.228433e+003, 2.144205e-001
1.230362e+003, 2.187366e-001
1.232290e+003, 2.232546e-001
1.234219e+003, 2.276749e-001
1.236147e+003, 2.324086e-001
1.238076e+003, 2.372612e-001
1.240004e+003, 2.420795e-001
1.241932e+003, 2.470275e-001
1.243861e+003, 2.518510e-001
1.245789e+003, 2.563484e-001
1.247718e+003, 2.608321e-001
1.249646e+003, 2.652815e-001
1.251575e+003, 2.698077e-001
1.253503e+003, 2.746082e-001
1.255432e+003, 2.795534e-001
1.257360e+003, 2.847384e-001
1.259289e+003, 2.902515e-001
1.261217e+003, 2.959184e-001
1.263146e+003, 3.017569e-001
1.265074e+003, 3.075498e-001
1.267003e+003, 3.131533e-001
1.268931e+003, 3.182083e-001
1.270859e+003, 3.229613e-001
1.272788e+003, 3.274522e-001
1.274716e+003, 3.311419e-001
1.276645e+003, 3.339847e-001
1.278573e+003, 3.362648e-001
1.280502e+003, 3.377245e-001
1.282430e+003, 3.384050e-001
1.284359e+003, 3.381948e-001
1.286287e+003, 3.374635e-001
1.288216e+003, 3.361347e-001
1.290144e+003, 3.341075e-001
1.292073e+003, 3.318699e-001
1.294001e+003, 3.295143e-001
1.295930e+003, 3.267618e-001
1.297858e+003, 3.238848e-001
1.299786e+003, 3.207101e-001
1.301715e+003, 3.173651e-001
1.303643e+003, 3.140217e-001
1.305572e+003, 3.104763e-001
1.307500e+003, 3.067910e-001
1.309429e+003, 3.032927e-001
1.311357e+003, 2.997010e-001
1.313286e+003, 2.960180e-001
1.315214e+003, 2.921148e-001
1.317143e+003, 2.887805e-001
1.319071e+003, 2.862003e-001
1.321000e+003, 2.831874e-001
1.322928e+003, 2.797190e-001
1.324857e+003, 2.762400e-001
1.326785e+003, 2.726986e-001
1.328714e+003, 2.690957e-001
1.330642e+003, 2.656228e-001
1.332570e+003, 2.622407e-001
1.334499e+003, 2.588503e-001
1.336427e+003, 2.553149e-001
1.338356e+003, 2.517211e-001
1.340284e+003, 2.482279e-001
1.342213e+003, 2.450402e-001
1.344141e+003, 2.421654e-001
1.346070e+003, 2.394457e-001
1.347998e+003, 2.369573e-001
1.349927e+003, 2.347366e-001
1.351855e+003, 2.328731e-001
1.353784e+003, 2.308795e-001
1.355712e+003, 2.285293e-001
1.357641e+003, 2.259402e-001
1.359569e+003, 2.231750e-001
1.361497e+003, 2.205204e-001
1.363426e+003, 2.183688e-001
1.365354e+003, 2.167097e-001
1.367283e+003, 2.156137e-001
1.369211e+003, 2.154177e-001
1.371140e+003, 2.155522e-001
1.373068e+003, 2.154860e-001
1.374997e+003, 2.154939e-001
1.376925e+003, 2.155610e-001
1.378854e+003, 2.153002e-001
1.380782e+003, 2.144747e-001
1.382711e+003, 2.130673e-001
1.384639e+003, 2.114153e-001
1.386568e+003, 2.098814e-001
1.388496e+003, 2.089471e-001
1.390424e+003, 2.083886e-001
1.392353e+003, 2.075279e-001
1.394281e+003, 2.057886e-001
1.396210e+003, 2.015085e-001
1.398138e+003, 1.933385e-001
1.400067e+003, 1.823510e-001
1.401995e+003, 1.699753e-001
1.403924e+003, 1.568187e-001
1.405852e+003, 1.440759e-001
1.407781e+003, 1.324014e-001
1.409709e+003, 1.220153e-001
1.411638e+003, 1.128081e-001
1.413566e+003, 1.045882e-001
1.415495e+003, 9.724963e-002
1.417423e+003, 9.066150e-002
1.419351e+003, 8.456589e-002
1.421280e+003, 7.970986e-002
1.423208e+003, 7.526897e-002
1.425137e+003, 7.108195e-002
1.427065e+003, 6.707740e-002
1.428994e+003, 6.323910e-002
1.430922e+003, 6.008834e-002
1.432851e+003, 5.749157e-002
1.434779e+003, 5.517309e-002
1.436708e+003, 5.397527e-002
1.438636e+003, 5.525500e-002
1.440565e+003, 5.856766e-002
1.442493e+003, 6.460216e-002
1.444422e+003, 7.377472e-002
1.446350e+003, 8.534312e-002
1.448278e+003, 9.693217e-002
1.450207e+003, 1.038331e-001
1.452135e+003, 1.018530e-001
1.454064e+003, 9.133223e-002
1.455992e+003, 7.617138e-002
1.457921e+003, 6.226297e-002
1.459849e+003, 5.181824e-002
1.461778e+003, 4.365010e-002
1.463706e+003, 3.714616e-002
1.465635e+003, 3.227124e-002
1.467563e+003, 2.885231e-002
1.469492e+003, 2.601444e-002
1.471420e+003, 2.334341e-002
1.473349e+003, 2.149296e-002
1.475277e+003, 2.058419e-002
1.477205e+003, 1.983024e-002
1.479134e+003, 1.924603e-002
1.481062e+003, 1.867833e-002
1.482991e+003, 1.824316e-002
1.484919e+003, 1.781501e-002
1.486848e+003, 1.764265e-002
1.488776e+003, 1.749619e-002
1.490705e+003, 1.742182e-002
1.492633e+003, 1.760410e-002
1.494562e+003, 1.734599e-002
1.496490e+003, 1.714073e-002
1.498419e+003, 1.772656e-002
1.500347e+003, 1.831557e-002
1.502276e+003, 1.856281e-002
1.504204e+003, 1.810042e-002
1.506132e+003, 1.738168e-002
1.508061e+003, 1.816377e-002
1.509989e+003, 1.945336e-002
1.511918e+003, 1.998663e-002
1.513846e+003, 2.033957e-002
1.515775e+003, 2.079769e-002
1.517703e+003, 2.145971e-002
1.519632e+003, 2.170455e-002
1.521560e+003, 2.200722e-002
1.523489e+003, 2.322395e-002
1.525417e+003, 2.418510e-002
1.527346e+003, 2.536277e-002
1.529274e+003, 2.640586e-002
1.531203e+003, 2.708960e-002
1.533131e+003, 2.767457e-002
1.535059e+003, 2.873307e-002
1.536988e+003, 2.933783e-002
1.538916e+003, 2.915001e-002
1.540845e+003, 2.999095e-002
1.542773e+003, 3.164132e-002
1.544702e+003, 3.326365e-002
1.546630e+003, 3.498111e-002
1.548559e+003, 3.663932e-002
1.550487e+003, 3.835631e-002
1.552416e+003, 4.003380e-002
1.554344e+003, 4.152287e-002
1.556273e+003, 4.324301e-002
1.558201e+003, 4.443163e-002
1.560130e+003, 4.709738e-002
1.562058e+003, 5.110468e-002
1.563986e+003, 5.431713e-002
1.565915e+003, 5.738262e-002
1.567843e+003, 6.047661e-002
1.569772e+003, 6.374282e-002
1.571700e+003, 6.778403e-002
1.573629e+003, 7.200079e-002
1.575557e+003, 7.616103e-002
1.577486e+003, 8.177067e-002
1.579414e+003, 8.821543e-002
1.581343e+003, 9.458892e-002
1.583271e+003, 1.012399e-001
1.585200e+003, 1.083654e-001
1.587128e+003, 1.160375e-001
1.589057e+003, 1.241889e-001
1.590985e+003, 1.331254e-001
1.592913e+003, 1.431229e-001
1.594842e+003, 1.544624e-001
1.596770e+003, 1.671737e-001
1.598699e+003, 1.816662e-001
1.600627e+003, 1.980970e-001
1.602556e+003, 2.160693e-001
1.604484e+003, 2.350243e-001
1.606413e+003, 2.539880e-001
1.608341e+003, 2.715643e-001
1.610270e+003, 2.865262e-001
1.612198e+003, 2.971980e-001
1.614127e+003, 3.016915e-001
1.616055e+003, 2.993882e-001
1.617984e+003, 2.923543e-001
1.619912e+003, 2.820319e-001
1.621840e+003, 2.684541e-001
1.623769e+003, 2.533537e-001
1.625697e+003, 2.384015e-001
1.627626e+003, 2.240995e-001
1.629554e+003, 2.111934e-001
1.631483e+003, 2.000862e-001
1.633411e+003, 1.902554e-001
1.635340e+003, 1.822977e-001
1.637268e+003, 1.778472e-001
1.639197e+003, 1.756150e-001
1.641125e+003, 1.747348e-001
1.643054e+003, 1.752467e-001
1.644982e+003, 1.760526e-001
1.646911e+003, 1.773933e-001
1.648839e+003, 1.790822e-001
1.650767e+003, 1.788194e-001
1.652696e+003, 1.768986e-001
1.654624e+003, 1.764160e-001
1.656553e+003, 1.752863e-001
1.658481e+003, 1.720300e-001
1.660410e+003, 1.675841e-001
1.662338e+003, 1.624636e-001
1.664267e+003, 1.570119e-001
1.666195e+003, 1.510103e-001
1.668124e+003, 1.438171e-001
1.670052e+003, 1.361545e-001
1.671981e+003, 1.286184e-001
1.673909e+003, 1.207469e-001
1.675838e+003, 1.133373e-001
1.677766e+003, 1.069161e-001
1.679694e+003, 9.968463e-002
1.681623e+003, 9.136369e-002
1.683551e+003, 8.265539e-002
1.685480e+003, 7.713881e-002
1.687408e+003, 7.599031e-002
1.689337e+003, 7.879756e-002
1.691265e+003, 8.567964e-002
1.693194e+003, 9.249358e-002
1.695122e+003, 9.441148e-002
1.697051e+003, 9.140725e-002
1.698979e+003, 8.382241e-002
1.700908e+003, 7.405968e-002
1.702836e+003, 6.548193e-002
1.704765e+003, 5.656176e-002
1.706693e+003, 4.841856e-002
1.708621e+003, 4.194019e-002
1.710550e+003, 3.691335e-002
1.712478e+003, 3.295106e-002
1.714407e+003, 3.034332e-002
1.716335e+003, 2.820509e-002
1.718264e+003, 2.722053e-002
1.720192e+003, 2.757129e-002
1.722121e+003, 2.774031e-002
1.724049e+003, 2.771096e-002
1.725978e+003, 2.816702e-002
1.727906e+003, 2.895712e-002
1.729835e+003, 2.966716e-002
1.731763e+003, 2.912056e-002
1.733692e+003, 2.717348e-002
1.735620e+003, 2.599317e-002
1.737548e+003, 2.497342e-002
1.739477e+003, 2.324579e-002
1.741405e+003, 2.222736e-002
1.743334e+003, 2.138933e-002
1.745262e+003, 2.037505e-002
1.747191e+003, 1.939755e-002
1.749119e+003, 1.837319e-002
1.751048e+003, 1.751027e-002
1.752976e+003, 1.763856e-002
1.754905e+003, 1.762576e-002
1.756833e+003, 1.744558e-002
1.758762e+003, 1.769412e-002
1.760690e+003, 1.760772e-002
1.762619e+003, 1.758993e-002
1.764547e+003, 1.788172e-002
1.766475e+003, 1.772525e-002
1.768404e+003, 1.747463e-002
1.770332e+003, 1.745953e-002
1.772261e+003, 1.740436e-002
1.774189e+003, 1.799347e-002
1.776118e+003, 1.853183e-002
1.778046e+003, 1.871013e-002
1.779975e+003, 1.884885e-002
1.781903e+003, 1.911414e-002
1.783832e+003, 1.943549e-002
1.785760e+003, 1.977053e-002
1.787689e+003, 2.030997e-002
1.789617e+003, 2.071282e-002
1.791546e+003, 2.080927e-002
1.793474e+003, 2.130165e-002
1.795402e+003, 2.215285e-002
1.797331e+003, 2.261858e-002
1.799259e+003, 2.329368e-002
1.801188e+003, 2.406652e-002
1.803116e+003, 2.494143e-002
1.805045e+003, 2.583718e-002
1.806973e+003, 2.672021e-002
1.808902e+003, 2.747429e-002
1.810830e+003, 2.835995e-002
1.812759e+003, 2.923895e-002
1.814687e+003, 3.013810e-002
1.816616e+003, 3.124149e-002
1.818544e+003, 3.256327e-002
1.820473e+003, 3.382807e-002
1.822401e+003, 3.518803e-002
1.824329e+003, 3.594064e-002
1.826258e+003, 3.629656e-002
1.828186e+003, 3.698999e-002
1.830115e+003, 3.782061e-002
1.832043e+003, 3.857786e-002
1.833972e+003, 3.934722e-002
1.835900e+003, 3.977618e-002
1.837829e+003, 3.994587e-002
1.839757e+003, 4.017687e-002
1.841686e+003, 4.026832e-002
1.843614e+003, 3.996508e-002
1.845543e+003, 4.004713e-002
1.847471e+003, 4.018397e-002
1.849400e+003, 3.992293e-002
1.851328e+003, 3.920620e-002
1.853256e+003, 3.928908e-002
1.855185e+003, 3.947429e-002
1.857113e+003, 3.922413e-002
1.859042e+003, 3.871597e-002
1.860970e+003, 3.853868e-002
1.862899e+003, 3.826852e-002
1.864827e+003, 3.796506e-002
1.866756e+003, 3.801607e-002
1.868684e+003, 3.849365e-002
1.870613e+003, 3.983691e-002
1.872541e+003, 4.144151e-002
1.874470e+003, 4.317518e-002
1.876398e+003, 4.482276e-002
1.878327e+003, 4.651047e-002
1.880255e+003, 4.841299e-002
1.882183e+003, 5.002000e-002
1.884112e+003, 5.178360e-002
1.886040e+003, 5.410067e-002
1.887969e+003, 5.606993e-002
1.889897e+003, 5.844310e-002
1.891826e+003, 6.138124e-002
1.893754e+003, 6.377340e-002
1.895683e+003, 6.638912e-002
1.897611e+003, 6.923983e-002
1.899540e+003, 7.267294e-002
1.901468e+003, 7.595549e-002
1.903397e+003, 7.884964e-002
1.905325e+003, 8.214019e-002
1.907254e+003, 8.614112e-002
1.909182e+003, 8.882195e-002
1.911110e+003, 9.059787e-002
1.913039e+003, 9.235308e-002
1.914967e+003, 9.417860e-002
1.916896e+003, 9.501011e-002
1.918824e+003, 9.464636e-002
1.920753e+003, 9.372779e-002
1.922681e+003, 9.198137e-002
1.924610e+003, 9.048982e-002
1.926538e+003, 8.903129e-002
1.928467e+003, 8.666840e-002
1.930395e+003, 8.409871e-002
1.932324e+003, 8.136030e-002
1.934252e+003, 7.801031e-002
1.936181e+003, 7.435492e-002
1.938109e+003, 7.123423e-002
1.940037e+003, 6.870026e-002
1.941966e+003, 6.545123e-002
1.943894e+003, 6.217679e-002
1.945823e+003, 5.940864e-002
1.947751e+003, 5.716360e-002
1.949680e+003, 5.494693e-002
1.951608e+003, 5.187653e-002
1.953537e+003, 4.996929e-002
1.955465e+003, 4.864125e-002
1.957394e+003, 4.677713e-002
1.959322e+003, 4.510404e-002
1.961251e+003, 4.365829e-002
1.963179e+003, 4.235562e-002
1.965108e+003, 4.147412e-002
1.967036e+003, 3.936003e-002
1.968964e+003, 3.814520e-002
1.970893e+003, 3.903465e-002
1.972821e+003, 3.971571e-002
1.974750e+003, 3.848392e-002
1.976678e+003, 3.714162e-002
1.978607e+003, 3.868148e-002
1.980535e+003, 4.010727e-002
1.982464e+003, 4.050605e-002
1.984392e+003, 3.990094e-002
1.986321e+003, 3.867162e-002
1.988249e+003, 3.828504e-002
1.990178e+003, 3.837599e-002
1.992106e+003, 3.936768e-002
1.994035e+003, 3.991053e-002
1.995963e+003, 4.019722e-002
1.997891e+003, 4.058162e-002
1.999820e+003, 4.040097e-002
2.001748e+003, 3.950895e-002
2.003677e+003, 3.878517e-002
2.005605e+003, 3.988061e-002
2.007534e+003, 4.147748e-002
2.009462e+003, 4.189448e-002
2.011391e+003, 4.077579e-002
2.013319e+003, 4.069888e-002
2.015248e+003, 4.148587e-002
2.017176e+003, 4.147657e-002
2.019105e+003, 4.243737e-002
2.021033e+003, 4.360544e-002
2.022962e+003, 4.332762e-002
2.024890e+003, 4.256024e-002
2.026818e+003, 4.348221e-002
2.028747e+003, 4.500634e-002
2.030675e+003, 4.601640e-002
2.032604e+003, 4.655553e-002
2.034532e+003, 4.725743e-002
2.036461e+003, 4.625044e-002
2.038389e+003, 4.573394e-002
2.040318e+003, 4.669526e-002
2.042246e+003, 4.777035e-002
2.044175e+003, 4.790286e-002
2.046103e+003, 4.632998e-002
2.048031e+003, 4.727337e-002
2.049960e+003, 4.906310e-002
2.051888e+003, 4.770704e-002
2.053817e+003, 4.676239e-002
2.055745e+003, 4.700037e-002
2.057674e+003, 4.698624e-002
2.059602e+003, 4.642300e-002
2.061531e+003, 4.581787e-002
2.063459e+003, 4.486123e-002
2.065388e+003, 4.402345e-002
2.067316e+003, 4.458949e-002
2.069245e+003, 4.539943e-002
2.071173e+003, 4.640627e-002
2.073102e+003, 4.678286e-002
2.075030e+003, 4.714915e-002
2.076958e+003, 4.669851e-002
2.078887e+003, 4.593521e-002
2.080815e+003, 4.543026e-002
2.082744e+003, 4.472755e-002
2.084672e+003, 4.453070e-002
2.086601e+003, 4.387259e-002
2.088529e+003, 4.313268e-002
2.090458e+003, 4.177325e-002
2.092386e+003, 4.140332e-002
2.094315e+003, 4.110894e-002
2.096243e+003, 4.170093e-002
2.098172e+003, 4.257859e-002
2.100100e+003, 4.258386e-002
2.102029e+003, 4.231627e-002
2.103957e+003, 4.237097e-002
2.105885e+003, 4.174490e-002
2.107814e+003, 4.153664e-002
2.109742e+003, 4.165702e-002
2.111671e+003, 4.200727e-002
2.113599e+003, 4.185000e-002
2.115528e+003, 4.151641e-002
2.117456e+003, 4.124157e-002
2.119385e+003, 4.049655e-002
2.121313e+003, 3.958587e-002
2.123242e+003, 3.939539e-002
2.125170e+003, 3.839057e-002
2.127099e+003, 3.840280e-002
2.129027e+003, 3.939697e-002
2.130956e+003, 3.934912e-002
2.132884e+003, 3.946964e-002
2.134813e+003, 4.008665e-002
2.136741e+003, 4.015956e-002
2.138669e+003, 3.957608e-002
2.140598e+003, 3.999248e-002
2.142526e+003, 3.984854e-002
2.144455e+003, 3.902820e-002
2.146383e+003, 3.953555e-002
2.148312e+003, 4.026541e-002
2.150240e+003, 4.123890e-002
2.152169e+003, 4.155216e-002
2.154097e+003, 4.081642e-002
2.156026e+003, 4.024569e-002
2.157954e+003, 4.215665e-002
2.159883e+003, 4.577491e-002
2.161811e+003, 4.678310e-002
2.163740e+003, 4.479966e-002
2.165668e+003, 4.421717e-002
2.167596e+003, 4.448767e-002
2.169525e+003, 4.369073e-002
2.171453e+003, 4.334496e-002
2.173382e+003, 4.304510e-002
2.175310e+003, 4.322442e-002
2.177239e+003, 4.423521e-002
2.179167e+003, 4.400957e-002
2.181096e+003, 4.403711e-002
2.183024e+003, 4.504679e-002
2.184953e+003, 4.698082e-002
2.186881e+003, 4.826102e-002
2.188810e+003, 4.716760e-002
2.190738e+003, 4.601270e-002
2.192667e+003, 4.636996e-002
2.194595e+003, 4.646325e-002
2.196523e+003, 4.723370e-002
2.198452e+003, 4.787242e-002
2.200380e+003, 4.830499e-002
2.202309e+003, 4.849505e-002
2.204237e+003, 4.845827e-002
2.206166e+003, 4.903780e-002
2.208094e+003, 5.035692e-002
2.210023e+003, 5.097197e-002
2.211951e+003, 5.034811e-002
2.213880e+003, 5.082987e-002
2.215808e+003, 5.174192e-002
2.217737e+003, 5.292678e-002
2.219665e+003, 5.380234e-002
2.221594e+003, 5.368099e-002
2.223522e+003, 5.336659e-002
2.225450e+003, 5.287527e-002
2.227379e+003, 5.339686e-002
2.229307e+003, 5.412669e-002
2.231236e+003, 5.487145e-002
2.233164e+003, 5.613065e-002
2.235093e+003, 5.710273e-002
2.237021e+003, 5.699460e-002
2.238950e+003, 5.710134e-002
2.240878e+003, 5.736959e-002
2.242807e+003, 5.809440e-002
2.244735e+003, 5.905104e-002
2.246664e+003, 5.967553e-002
2.248592e+003, 6.030046e-002
2.250521e+003, 6.050844e-002
2.252449e+003, 6.069609e-002
2.254377e+003, 6.203241e-002
2.256306e+003, 6.268666e-002
2.258234e+003, 6.258596e-002
2.260163e+003, 6.308573e-002
2.262091e+003, 6.316774e-002
2.264020e+003, 6.364480e-002
2.265948e+003, 6.429690e-002
2.267877e+003, 6.386973e-002
2.269805e+003, 6.404804e-002
2.271734e+003, 6.455002e-002
2.273662e+003, 6.496485e-002
2.275591e+003, 6.485844e-002
2.277519e+003, 6.481189e-002
2.279448e+003, 6.542031e-002
2.281376e+003, 6.593395e-002
2.283304e+003, 6.596377e-002
2.285233e+003, 6.628650e-002
2.287161e+003, 6.628571e-002
2.289090e+003, 6.622777e-002
2.291018e+003, 6.629368e-002
2.292947e+003, 6.609707e-002
2.294875e+003, 6.579852e-002
2.296804e+003, 6.620540e-002
2.298732e+003, 6.690198e-002
2.300661e+003, 6.772318e-002
2.302589e+003, 6.785491e-002
2.304518e+003, 6.798476e-002
2.306446e+003, 6.853420e-002
2.308375e+003, 6.908657e-002
2.310303e+003, 6.946467e-002
2.312231e+003, 6.953364e-002
2.314160e+003, 6.988712e-002
2.316088e+003, 7.082579e-002
2.318017e+003, 7.123835e-002
2.319945e+003, 7.197648e-002
2.321874e+003, 7.304498e-002
2.323802e+003, 7.343777e-002
2.325731e+003, 7.280479e-002
2.327659e+003, 7.238206e-002
2.329588e+003, 7.263546e-002
2.331516e+003, 7.267035e-002
2.333445e+003, 7.295941e-002
2.335373e+003, 7.380342e-002
2.337302e+003, 7.456385e-002
2.339230e+003, 7.542679e-002
2.341158e+003, 7.607426e-002
2.343087e+003, 7.686752e-002
2.345015e+003, 7.788028e-002
2.346944e+003, 7.921355e-002
2.348872e+003, 7.990941e-002
2.350801e+003, 8.005116e-002
2.352729e+003, 8.032738e-002
2.354658e+003, 8.074137e-002
2.356586e+003, 8.131691e-002
2.358515e+003, 8.142339e-002
2.360443e+003, 8.165499e-002
2.362372e+003, 8.248112e-002
2.364300e+003, 8.338463e-002
2.366229e+003, 8.419159e-002
2.368157e+003, 8.540858e-002
2.370085e+003, 8.686126e-002
2.372014e+003, 8.819832e-002
2.373942e+003, 8.926249e-002
2.375871e+003, 9.033301e-002
2.377799e+003, 9.141553e-002
2.379728e+003, 9.227294e-002
2.381656e+003, 9.306862e-002
2.383585e+003, 9.389091e-002
2.385513e+003, 9.477196e-002
2.387442e+003, 9.605381e-002
2.389370e+003, 9.712934e-002
2.391299e+003, 9.788536e-002
2.393227e+003, 9.870029e-002
2.395156e+003, 9.976100e-002
2.397084e+003, 1.005813e-001
2.399012e+003, 1.010151e-001
2.400941e+003, 1.015598e-001
2.402869e+003, 1.021171e-001
2.404798e+003, 1.026550e-001
2.406726e+003, 1.039086e-001
2.408655e+003, 1.053065e-001
2.410583e+003, 1.064801e-001
2.412512e+003, 1.070915e-001
2.414440e+003, 1.074888e-001
2.416369e+003, 1.085023e-001
2.418297e+003, 1.092025e-001
2.420226e+003, 1.097338e-001
2.422154e+003, 1.103396e-001
2.424083e+003, 1.111482e-001
2.426011e+003, 1.115839e-001
2.427939e+003, 1.122751e-001
2.429868e+003, 1.131318e-001
2.431796e+003, 1.136129e-001
2.433725e+003, 1.139843e-001
2.435653e+003, 1.148696e-001
2.437582e+003, 1.150556e-001
2.439510e+003, 1.152454e-001
2.441439e+003, 1.156836e-001
2.443367e+003, 1.157545e-001
2.445296e+003, 1.158945e-001
2.447224e+003, 1.166029e-001
2.449153e+003, 1.175225e-001
2.451081e+003, 1.175697e-001
2.453010e+003, 1.171151e-001
2.454938e+003, 1.170842e-001
2.456866e+003, 1.169556e-001
2.458795e+003, 1.172053e-001
2.460723e+003, 1.177797e-001
2.462652e+003, 1.178002e-001
2.464580e+003, 1.172816e-001
2.466509e+003, 1.170737e-001
2.468437e+003, 1.172051e-001
2.470366e+003, 1.175727e-001
2.472294e+003, 1.172879e-001
2.474223e+003, 1.168828e-001
2.476151e+003, 1.167600e-001
2.478080e+003, 1.171845e-001
2.480008e+003, 1.174532e-001
2.481937e+003, 1.167898e-001
2.483865e+003, 1.164974e-001
2.485793e+003, 1.168285e-001
2.487722e+003, 1.165944e-001
2.489650e+003, 1.160311e-001
2.491579e+003, 1.159550e-001
2.493507e+003, 1.158588e-001
2.495436e+003, 1.157790e-001
2.497364e+003, 1.159303e-001
2.499293e+003, 1.163142e-001
2.501221e+003, 1.164702e-001
2.503150e+003, 1.168295e-001
2.505078e+003, 1.168545e-001
2.507007e+003, 1.161689e-001
2.508935e+003, 1.155683e-001
2.510864e+003, 1.158047e-001
2.512792e+003, 1.161134e-001
2.514720e+003, 1.163495e-001
2.516649e+003, 1.168486e-001
2.518577e+003, 1.169403e-001
2.520506e+003, 1.163798e-001
2.522434e+003, 1.161394e-001
2.524363e+003, 1.164894e-001
2.526291e+003, 1.164342e-001
2.528220e+003, 1.166285e-001
2.530148e+003, 1.168046e-001
2.532077e+003, 1.167079e-001
2.534005e+003, 1.165565e-001
2.535934e+003, 1.157193e-001
2.537862e+003, 1.151953e-001
2.539791e+003, 1.152051e-001
2.541719e+003, 1.151379e-001
2.543647e+003, 1.150621e-001
2.545576e+003, 1.143847e-001
2.547504e+003, 1.134937e-001
2.549433e+003, 1.135846e-001
2.551361e+003, 1.131960e-001
2.553290e+003, 1.122267e-001
2.555218e+003, 1.109391e-001
2.557147e+003, 1.097213e-001
2.559075e+003, 1.085917e-001
2.561004e+003, 1.078275e-001
2.562932e+003, 1.067346e-001
2.564861e+003, 1.055182e-001
2.566789e+003, 1.044935e-001
2.568718e+003, 1.032923e-001
2.570646e+003, 1.022970e-001
2.572574e+003, 1.013488e-001
2.574503e+003, 1.004981e-001
2.576431e+003, 9.995499e-002
2.578360e+003, 9.936896e-002
2.580288e+003, 9.821992e-002
2.582217e+003, 9.748868e-002
2.584145e+003, 9.695292e-002
2.586074e+003, 9.629513e-002
2.588002e+003, 9.535892e-002
2.589931e+003, 9.445196e-002
2.591859e+003, 9.377764e-002
2.593788e+003, 9.343987e-002
2.595716e+003, 9.315491e-002
2.597645e+003, 9.238452e-002
2.599573e+003, 9.211721e-002
2.601501e+003, 9.197674e-002
2.603430e+003, 9.151947e-002
2.605358e+003, 9.126581e-002
2.607287e+003, 9.069594e-002
2.609215e+003, 8.999681e-002
2.611144e+003, 8.976582e-002
2.613072e+003, 8.970180e-002
2.615001e+003, 8.940115e-002
2.616929e+003, 8.908989e-002
2.618858e+003, 8.882912e-002
2.620786e+003, 8.838523e-002
2.622715e+003, 8.768111e-002
2.624643e+003, 8.719395e-002
2.626572e+003, 8.705825e-002
2.628500e+003, 8.649401e-002
2.630428e+003, 8.567353e-002
2.632357e+003, 8.499460e-002
2.634285e+003, 8.442141e-002
2.636214e+003, 8.481494e-002
2.638142e+003, 8.467390e-002
2.640071e+003, 8.390215e-002
2.641999e+003, 8.335784e-002
2.643928e+003, 8.259606e-002
2.645856e+003, 8.158837e-002
2.647785e+003, 8.066869e-002
2.649713e+003, 8.000361e-002
2.651642e+003, 7.915045e-002
2.653570e+003, 7.867711e-002
2.655499e+003, 7.839955e-002
2.657427e+003, 7.775059e-002
2.659355e+003, 7.705346e-002
2.661284e+003, 7.628535e-002
2.663212e+003, 7.555811e-002
2.665141e+003, 7.477777e-002
2.667069e+003, 7.410716e-002
2.668998e+003, 7.349396e-002
2.670926e+003, 7.278352e-002
2.672855e+003, 7.234513e-002
2.674783e+003, 7.144018e-002
2.676712e+003, 7.033330e-002
2.678640e+003, 6.949803e-002
2.680569e+003, 6.858730e-002
2.682497e+003, 6.774103e-002
2.684426e+003, 6.675480e-002
2.686354e+003, 6.598008e-002
2.688282e+003, 6.532597e-002
2.690211e+003, 6.470153e-002
2.692139e+003, 6.400111e-002
2.694068e+003, 6.283504e-002
2.695996e+003, 6.190509e-002
2.697925e+003, 6.123282e-002
2.699853e+003, 6.024218e-002
2.701782e+003, 5.933166e-002
2.703710e+003, 5.888896e-002
2.705639e+003, 5.811228e-002
2.707567e+003, 5.765183e-002
2.709496e+003, 5.725702e-002
2.711424e+003, 5.649120e-002
2.713353e+003, 5.563968e-002
2.715281e+003, 5.502245e-002
2.717209e+003, 5.448290e-002
2.719138e+003, 5.402824e-002
2.721066e+003, 5.377812e-002
2.722995e+003, 5.358720e-002
2.724923e+003, 5.326927e-002
2.726852e+003, 5.278968e-002
2.728780e+003, 5.246796e-002
2.730709e+003, 5.256673e-002
2.732637e+003, 5.281182e-002
2.734566e+003, 5.266622e-002
2.736494e+003, 5.233929e-002
2.738423e+003, 5.211046e-002
2.740351e+003, 5.198613e-002
2.742280e+003, 5.210152e-002
2.744208e+003, 5.209184e-002
2.746136e+003, 5.167848e-002
2.748065e+003, 5.183175e-002
2.749993e+003, 5.148748e-002
2.751922e+003, 5.097846e-002
2.753850e+003, 5.070669e-002
2.755779e+003, 5.043000e-002
2.757707e+003, 4.969143e-002
2.759636e+003, 4.914525e-002
2.761564e+003, 4.888301e-002
2.763493e+003, 4.861191e-002
2.765421e+003, 4.817797e-002
2.767350e+003, 4.790707e-002
2.769278e+003, 4.734767e-002
2.771207e+003, 4.697714e-002
2.773135e+003, 4.674055e-002
2.775063e+003, 4.629823e-002
2.776992e+003, 4.590176e-002
2.778920e+003, 4.543442e-002
2.780849e+003, 4.498684e-002
2.782777e+003, 4.462222e-002
2.784706e+003, 4.415948e-002
2.786634e+003, 4.389900e-002
2.788563e+003, 4.353457e-002
2.790491e+003, 4.362720e-002
2.792420e+003, 4.366390e-002
2.794348e+003, 4.355386e-002
2.796277e+003, 4.380331e-002
2.798205e+003, 4.415836e-002
2.800134e+003, 4.426444e-002
2.802062e+003, 4.430844e-002
2.803990e+003, 4.429165e-002
2.805919e+003, 4.431954e-002
2.807847e+003, 4.449976e-002
2.809776e+003, 4.449231e-002
2.811704e+003, 4.421199e-002
2.813633e+003, 4.437197e-002
2.815561e+003, 4.490875e-002
2.817490e+003, 4.547578e-002
2.819418e+003, 4.570037e-002
2.821347e+003, 4.578765e-002
2.823275e+003, 4.603554e-002
2.825204e+003, 4.654149e-002
2.827132e+003, 4.702285e-002
2.829061e+003, 4.734503e-002
2.830989e+003, 4.758869e-002
2.832917e+003, 4.784185e-002
2.834846e+003, 4.822760e-002
2.836774e+003, 4.867486e-002
2.838703e+003, 4.901769e-002
2.840631e+003, 4.937542e-002
2.842560e+003, 4.993570e-002
2.844488e+003, 5.061600e-002
2.846417e+003, 5.098839e-002
2.848345e+003, 5.088115e-002
2.850274e+003, 5.095961e-002
2.852202e+003, 5.118883e-002
2.854131e+003, 5.157477e-002
2.856059e+003, 5.173563e-002
2.857988e+003, 5.177227e-002
2.859916e+003, 5.225593e-002
2.861844e+003, 5.297465e-002
2.863773e+003, 5.364563e-002
2.865701e+003, 5.386033e-002
2.867630e+003, 5.395874e-002
2.869558e+003, 5.417836e-002
2.871487e+003, 5.483679e-002
2.873415e+003, 5.512846e-002
2.875344e+003, 5.488960e-002
2.877272e+003, 5.513257e-002
2.879201e+003, 5.587003e-002
2.881129e+003, 5.637344e-002
2.883058e+003, 5.653793e-002
2.884986e+003, 5.705818e-002
2.886915e+003, 5.765839e-002
2.888843e+003, 5.797427e-002
2.890771e+003, 5.773579e-002
2.892700e+003, 5.721097e-002
2.894628e+003, 5.740234e-002
2.896557e+003, 5.787235e-002
2.898485e+003, 5.802022e-002
2.900414e+003, 5.792130e-002
2.902342e+003, 5.819758e-002
2.904271e+003, 5.837951e-002
2.906199e+003, 5.828508e-002
2.908128e+003, 5.824953e-002
2.910056e+003, 5.785562e-002
2.911985e+003, 5.794166e-002
2.913913e+003, 5.795722e-002
2.915842e+003, 5.753501e-002
2.917770e+003, 5.746548e-002
2.919698e+003, 5.753244e-002
2.921627e+003, 5.712557e-002
2.923555e+003, 5.631590e-002
2.925484e+003, 5.541272e-002
2.927412e+003, 5.480133e-002
2.929341e+003, 5.445235e-002
2.931269e+003, 5.346078e-002
2.933198e+003, 5.228984e-002
2.935126e+003, 5.126991e-002
2.937055e+003, 5.024126e-002
2.938983e+003, 4.912996e-002
2.940912e+003, 4.871533e-002
2.942840e+003, 4.839271e-002
2.944769e+003, 4.751239e-002
2.946697e+003, 4.633354e-002
2.948625e+003, 4.523978e-002
2.950554e+003, 4.473701e-002
2.952482e+003, 4.441948e-002
2.954411e+003, 4.369359e-002
2.956339e+003, 4.300957e-002
2.958268e+003, 4.198229e-002
2.960196e+003, 4.106871e-002
2.962125e+003, 4.076643e-002
2.964053e+003, 4.079665e-002
2.965982e+003, 4.015830e-002
2.967910e+003, 3.893349e-002
2.969839e+003, 3.823368e-002
2.971767e+003, 3.767082e-002
2.973696e+003, 3.708180e-002
2.975624e+003, 3.666247e-002
2.977552e+003, 3.627386e-002
2.979481e+003, 3.573100e-002
2.981409e+003, 3.528114e-002
2.983338e+003, 3.499422e-002
2.985266e+003, 3.431438e-002
2.987195e+003, 3.355102e-002
2.989123e+003, 3.329956e-002
2.991052e+003, 3.288975e-002
2.992980e+003, 3.289777e-002
2.994909e+003, 3.278040e-002
2.996837e+003, 3.216222e-002
2.998766e+003, 3.206503e-002
3.000694e+003, 3.139813e-002
3.002623e+003, 3.089331e-002
3.004551e+003, 3.076142e-002
3.006479e+003, 3.131400e-002
3.008408e+003, 3.114372e-002
3.010336e+003, 3.057794e-002
3.012265e+003, 3.031572e-002
3.014193e+003, 3.038310e-002
3.016122e+003, 3.059827e-002
3.018050e+003, 3.033917e-002
3.019979e+003, 3.058206e-002
3.021907e+003, 3.095053e-002
3.023836e+003, 3.092550e-002
3.025764e+003, 3.077376e-002
3.027693e+003, 3.102613e-002
3.029621e+003, 3.151622e-002
3.031550e+003, 3.173715e-002
3.033478e+003, 3.168799e-002
3.035406e+003, 3.146992e-002
3.037335e+003, 3.132041e-002
3.039263e+003, 3.191350e-002
3.041192e+003, 3.251809e-002
3.043120e+003, 3.189242e-002
3.045049e+003, 3.152307e-002
3.046977e+003, 3.141623e-002
3.048906e+003, 3.125297e-002
3.050834e+003, 3.153526e-002
3.052763e+003, 3.134985e-002
3.054691e+003, 3.090383e-002
3.056620e+003, 3.113477e-002
3.058548e+003, 3.136330e-002
3.060477e+003, 3.145861e-002
3.062405e+003, 3.155037e-002
3.064333e+003, 3.211299e-002
3.066262e+003, 3.195383e-002
3.068190e+003, 3.142503e-002
3.070119e+003, 3.118687e-002
3.072047e+003, 3.091020e-002
3.073976e+003, 3.052163e-002
3.075904e+003, 2.988418e-002
3.077833e+003, 2.988397e-002
3.079761e+003, 2.994480e-002
3.081690e+003, 2.997611e-002
3.083618e+003, 2.976977e-002
3.085547e+003, 2.890219e-002
3.087475e+003, 2.835524e-002
3.089404e+003, 2.836064e-002
3.091332e+003, 2.855574e-002
3.093260e+003, 2.845311e-002
3.095189e+003, 2.784851e-002
3.097117e+003, 2.699968e-002
3.099046e+003, 2.654947e-002
3.100974e+003, 2.604658e-002
3.102903e+003, 2.593097e-002
3.104831e+003, 2.576257e-002
3.106760e+003, 2.580348e-002
3.108688e+003, 2.580158e-002
3.110617e+003, 2.481549e-002
3.112545e+003, 2.410129e-002
3.114474e+003, 2.440939e-002
3.116402e+003, 2.428787e-002
3.118331e+003, 2.347957e-002
3.120259e+003, 2.292696e-002
3.122188e+003, 2.256940e-002
3.124116e+003, 2.204757e-002
3.126044e+003, 2.172449e-002
3.127973e+003, 2.151291e-002
3.129901e+003, 2.115635e-002
3.131830e+003, 2.070778e-002
3.133758e+003, 2.047791e-002
3.135687e+003, 2.022110e-002
3.137615e+003, 1.934482e-002
3.139544e+003, 1.881485e-002
3.141472e+003, 1.874837e-002
3.143401e+003, 1.885971e-002
3.145329e+003, 1.827024e-002
3.147258e+003, 1.757655e-002
3.149186e+003, 1.709503e-002
3.151115e+003, 1.702468e-002
3.153043e+003, 1.680414e-002
3.154971e+003, 1.630078e-002
3.156900e+003, 1.630761e-002
3.158828e+003, 1.628161e-002
3.160757e+003, 1.631744e-002
3.162685e+003, 1.537616e-002
3.164614e+003, 1.464323e-002
3.166542e+003, 1.480352e-002
3.168471e+003, 1.467540e-002
3.170399e+003, 1.396281e-002
3.172328e+003, 1.376527e-002
3.174256e+003, 1.378950e-002
3.176185e+003, 1.359333e-002
3.178113e+003, 1.342522e-002
3.180042e+003, 1.305788e-002
3.181970e+003, 1.242732e-002
3.183898e+003, 1.186978e-002
3.185827e+003, 1.156596e-002
3.187755e+003, 1.178933e-002
3.189684e+003, 1.179332e-002
3.191612e+003, 1.195046e-002
3.193541e+003, 1.159510e-002
3.195469e+003, 1.076603e-002
3.197398e+003, 1.012743e-002
3.199326e+003, 9.893041e-003
3.201255e+003, 9.434110e-003
3.203183e+003, 9.188014e-003
3.205112e+003, 8.926697e-003
3.207040e+003, 8.296265e-003
3.208969e+003, 7.526718e-003
3.210897e+003, 7.486141e-003
3.212825e+003, 7.458583e-003
3.214754e+003, 7.527580e-003
3.216682e+003, 7.791579e-003
3.218611e+003, 8.159246e-003
3.220539e+003, 7.850816e-003
3.222468e+003, 7.179940e-003
3.224396e+003, 7.189752e-003
3.226325e+003, 6.885655e-003
3.228253e+003, 6.161978e-003
3.230182e+003, 6.023286e-003
3.232110e+003, 5.988540e-003
3.234039e+003, 6.016580e-003
3.235967e+003, 6.165379e-003
3.237896e+003, 6.397331e-003
3.239824e+003, 6.144896e-003
3.241752e+003, 5.527886e-003
3.243681e+003, 5.777697e-003
3.245609e+003, 6.470908e-003
3.247538e+003, 6.377617e-003
3.249466e+003, 6.058336e-003
3.251395e+003, 6.231302e-003
3.253323e+003, 6.779752e-003
3.255252e+003, 5.963649e-003
3.257180e+003, 5.471718e-003
3.259109e+003, 6.150305e-003
3.261037e+003, 5.984597e-003
3.262966e+003, 5.432206e-003
3.264894e+003, 5.562406e-003
3.266823e+003, 6.279313e-003
3.268751e+003, 6.908068e-003
3.270679e+003, 6.158728e-003
3.272608e+003, 5.343254e-003
3.274536e+003, 5.545875e-003
3.276465e+003, 4.978456e-003
3.278393e+003, 5.031461e-003
3.280322e+003, 5.557244e-003
3.282250e+003, 6.010429e-003
3.284179e+003, 5.839407e-003
3.286107e+003, 5.235485e-003
3.288036e+003, 4.661507e-003
3.289964e+003, 4.242985e-003
3.291893e+003, 4.162266e-003
3.293821e+003, 4.140039e-003
3.295750e+003, 4.284991e-003
3.297678e+003, 4.529769e-003
3.299606e+003, 4.507784e-003
3.301535e+003, 4.564685e-003
3.303463e+003, 5.126524e-003
3.305392e+003, 5.277395e-003
3.307320e+003, 4.646826e-003
3.309249e+003, 4.859145e-003
3.311177e+003, 5.242525e-003
3.313106e+003, 4.666772e-003
3.315034e+003, 3.958198e-003
3.316963e+003, 4.016102e-003
3.318891e+003, 4.102179e-003
3.320820e+003, 4.159145e-003
3.322748e+003, 4.191525e-003
3.324677e+003, 4.264501e-003
3.326605e+003, 4.475083e-003
3.328533e+003, 3.947930e-003
3.330462e+003, 3.930470e-003
3.332390e+003, 4.427317e-003
3.334319e+003, 4.324778e-003
3.336247e+003, 4.216125e-003
3.338176e+003, 4.985658e-003
3.340104e+003, 4.771498e-003
3.342033e+003, 3.684639e-003
3.343961e+003, 4.229205e-003
3.345890e+003, 4.805743e-003
3.347818e+003, 3.835769e-003
3.349747e+003, 3.729195e-003
3.351675e+003, 4.815330e-003
3.353604e+003, 4.945131e-003
3.355532e+003, 4.596002e-003
3.357460e+003, 4.536100e-003
3.359389e+003, 4.510391e-003
3.361317e+003, 4.803641e-003
3.363246e+003, 4.533671e-003
3.365174e+003, 3.869885e-003
3.367103e+003, 4.284181e-003
3.369031e+003, 5.194811e-003
3.370960e+003, 5.524855e-003
3.372888e+003, 5.322120e-003
3.374817e+003, 5.070943e-003
3.376745e+003, 4.399189e-003
3.378674e+003, 3.858303e-003
3.380602e+003, 4.274566e-003
3.382531e+003, 4.530213e-003
3.384459e+003, 4.747590e-003
3.386387e+003, 4.278899e-003
3.388316e+003, 3.753432e-003
3.390244e+003, 4.440594e-003
3.392173e+003, 5.053304e-003
3.394101e+003, 5.020566e-003
3.396030e+003, 3.995726e-003
3.397958e+003, 3.426828e-003
3.399887e+003, 3.647221e-003
3.401815e+003, 3.797377e-003
3.403744e+003, 4.040995e-003
3.405672e+003, 4.437046e-003
3.407601e+003, 4.568370e-003
3.409529e+003, 4.737377e-003
3.411458e+003, 5.021024e-003
3.413386e+003, 4.555425e-003
3.415314e+003, 4.660789e-003
3.417243e+003, 4.798295e-003
3.419171e+003, 4.992473e-003
3.421100e+003, 4.997626e-003
3.423028e+003, 4.972398e-003
3.424957e+003, 5.070666e-003
3.426885e+003, 5.315252e-003
3.428814e+003, 5.658905e-003
3.430742e+003, 5.963173e-003
3.432671e+003, 5.656592e-003
3.434599e+003, 5.201363e-003
3.436528e+003, 5.089176e-003
3.438456e+003, 4.792032e-003
3.440385e+003, 4.631948e-003
3.442313e+003, 5.350406e-003
3.444241e+003, 5.267216e-003
3.446170e+003, 4.812660e-003
3.448098e+003, 4.684290e-003
3.450027e+003, 4.965530e-003
3.451955e+003, 5.114903e-003
3.453884e+003, 5.093137e-003
3.455812e+003, 4.649414e-003
3.457741e+003, 4.296534e-003
3.459669e+003, 4.762233e-003
3.461598e+003, 5.011527e-003
3.463526e+003, 5.059865e-003
3.465455e+003, 5.797942e-003
3.467383e+003, 6.421600e-003
3.469312e+003, 5.485959e-003
3.471240e+003, 4.774368e-003
3.473168e+003, 5.168139e-003
3.475097e+003, 4.884904e-003
3.477025e+003, 4.493379e-003
3.478954e+003, 4.512223e-003
3.480882e+003, 4.103265e-003
3.482811e+003, 4.228711e-003
3.484739e+003, 4.387086e-003
3.486668e+003, 4.240707e-003
3.488596e+003, 5.568796e-003
3.490525e+003, 6.097285e-003
3.492453e+003, 5.689709e-003
3.494382e+003, 4.886830e-003
3.496310e+003, 3.970939e-003
3.498239e+003, 3.855478e-003
3.500167e+003, 3.510887e-003
3.502095e+003, 4.048314e-003
3.504024e+003, 4.688083e-003
3.505952e+003, 4.611833e-003
3.507881e+003, 4.921189e-003
3.509809e+003, 5.201072e-003
3.511738e+003, 4.991157e-003
3.513666e+003, 4.777082e-003
3.515595e+003, 4.705560e-003
3.517523e+003, 4.414100e-003
3.519452e+003, 4.432478e-003
3.521380e+003, 4.229761e-003
3.523309e+003, 3.505584e-003
3.525237e+003, 3.316055e-003
3.527166e+003, 3.945007e-003
3.529094e+003, 5.043961e-003
3.531022e+003, 5.038100e-003
3.532951e+003, 4.680397e-003
3.534879e+003, 4.669745e-003
3.536808e+003, 4.788483e-003
3.538736e+003, 4.121251e-003
3.540665e+003, 3.882211e-003
3.542593e+003, 4.113744e-003
3.544522e+003, 3.808151e-003
3.546450e+003, 3.837607e-003
3.548379e+003, 4.123144e-003
3.550307e+003, 3.622354e-003
3.552236e+003, 3.520695e-003
3.554164e+003, 4.355484e-003
3.556093e+003, 3.936727e-003
3.558021e+003, 3.842138e-003
3.559949e+003, 4.129275e-003
3.561878e+003, 4.100578e-003
3.563806e+003, 3.788077e-003
3.565735e+003, 3.584609e-003
3.567663e+003, 3.412103e-003
3.569592e+003, 4.204345e-003
3.571520e+003, 5.345028e-003
3.573449e+003, 5.100288e-003
3.575377e+003, 4.251163e-003
3.577306e+003, 4.150826e-003
3.579234e+003, 3.929126e-003
3.581163e+003, 3.829610e-003
3.583091e+003, 3.821851e-003
3.585020e+003, 3.026258e-003
3.586948e+003, 2.092743e-003
3.588876e+003, 2.566126e-003
3.590805e+003, 3.930521e-003
3.592733e+003, 4.162090e-003
3.594662e+003, 3.668266e-003
3.596590e+003, 4.189150e-003
3.598519e+003, 4.844724e-003
3.600447e+003, 4.766965e-003
3.602376e+003, 4.367971e-003
3.604304e+003, 3.495792e-003
3.606233e+003, 3.261119e-003
3.608161e+003, 3.032923e-003
3.610090e+003, 3.294582e-003
3.612018e+003, 2.962206e-003
3.613947e+003, 2.090960e-003
3.615875e+003, 2.490243e-003
3.617803e+003, 2.010743e-003
3.619732e+003, 2.540119e-003
3.621660e+003, 3.644193e-003
3.623589e+003, 4.079263e-003
3.625517e+003, 4.238805e-003
3.627446e+003, 3.295374e-003
3.629374e+003, 2.217724e-003
3.631303e+003, 2.890454e-003
3.633231e+003, 2.641230e-003
3.635160e+003, 2.855525e-003
3.637088e+003, 3.676457e-003
3.639017e+003, 4.128119e-003
3.640945e+003, 3.924035e-003
3.642874e+003, 3.439961e-003
3.644802e+003, 3.121878e-003
3.646730e+003, 3.186439e-003
3.648659e+003, 1.844526e-003
3.650587e+003, 1.147000e-003
3.652516e+003, 2.947751e-003
3.654444e+003, 3.813929e-003
3.656373e+003, 2.627086e-003
3.658301e+003, 2.855589e-003
3.660230e+003, 4.066369e-003
3.662158e+003, 3.994974e-003
3.664087e+003, 4.708576e-003
3.666015e+003, 4.734763e-003
3.667944e+003, 2.529170e-003
3.669872e+003, 5.835184e-004
3.671801e+003, 1.495461e-003
3.673729e+003, 2.037870e-003
3.675657e+003, 2.054122e-003
3.677586e+003, 3.083396e-003
3.679514e+003, 3.689234e-003
3.681443e+003, 4.324418e-003
3.683371e+003, 4.173433e-003
3.685300e+003, 4.232608e-003
3.687228e+003, 2.147132e-003
3.689157e+003, 1.666753e-003
3.691085e+003, 2.655975e-003
3.693014e+003, 2.791530e-003
3.694942e+003, 3.530033e-003
3.696871e+003, 3.622305e-003
3.698799e+003, 3.496040e-003
3.700728e+003, 3.933255e-003
3.702656e+003, 3.909910e-003
3.704584e+003, 3.675795e-003
3.706513e+003, 3.836565e-003
3.708441e+003, 3.776440e-003
3.710370e+003, 2.671680e-003
3.712298e+003, 1.826689e-003
3.714227e+003, 2.815129e-003
3.716155e+003, 3.411525e-003
3.718084e+003, 2.478733e-003
3.720012e+003, 2.989019e-003
3.721941e+003, 2.813843e-003
3.723869e+003, 2.801425e-003
3.725798e+003, 3.162217e-003
3.727726e+003, 4.950806e-003
3.729655e+003, 5.600973e-003
3.731583e+003, 3.405588e-003
3.733511e+003, 2.343902e-003
3.735440e+003, 2.178243e-003
3.737368e+003, 3.147084e-003
3.739297e+003, 4.669446e-003
3.741225e+003, 3.952220e-003
3.743154e+003, -1.062813e-005
3.745082e+003, -3.141231e-004
3.747011e+003, 1.349233e-003
3.748939e+003, -2.719903e-004
3.750868e+003, 4.947230e-004
3.752796e+003, 2.310828e-003
3.754725e+003, 3.809574e-003
3.756653e+003, 3.777832e-003
3.758582e+003, 4.005346e-003
3.760510e+003, 3.743987e-003
3.762438e+003, 4.339899e-003
3.764367e+003, 4.014383e-003
3.766295e+003, 3.113351e-003
3.768224e+003, 3.242800e-003
3.770152e+003, 4.354550e-003
3.772081e+003, 4.801211e-003
3.774009e+003, 4.447398e-003
3.775938e+003, 3.958739e-003
3.777866e+003, 4.058518e-003
3.779795e+003, 4.025054e-003
3.781723e+003, 4.481384e-003
3.783652e+003, 4.684055e-003
3.785580e+003, 4.127057e-003
3.787509e+003, 3.974291e-003
3.789437e+003, 4.457816e-003
3.791365e+003, 4.503176e-003
3.793294e+003, 3.963625e-003
3.795222e+003, 3.636436e-003
3.797151e+003, 5.048712e-003
3.799079e+003, 4.563733e-003
3.801008e+003, 2.734216e-003
3.802936e+003, 2.830912e-003
3.804865e+003, 2.748384e-003
3.806793e+003, 2.342118e-003
3.808722e+003, 3.174325e-003
3.810650e+003, 3.609518e-003
3.812579e+003, 3.440080e-003
3.814507e+003, 1.738852e-003
3.816436e+003, 1.071004e-003
3.818364e+003, 2.528607e-003
3.820292e+003, 2.274965e-003
3.822221e+003, 2.196873e-003
3.824149e+003, 3.828132e-003
3.826078e+003, 4.137736e-003
3.828006e+003, 4.082992e-003
3.829935e+003, 3.828757e-003
3.831863e+003, 4.078749e-003
3.833792e+003, 4.478030e-003
3.835720e+003, 2.915381e-003
3.837649e+003, 1.086281e-003
3.839577e+003, 2.368901e-003
3.841506e+003, 4.119072e-003
3.843434e+003, 4.633937e-003
3.845363e+003, 3.815194e-003
3.847291e+003, 3.435280e-003
3.849219e+003, 2.761986e-003
3.851148e+003, 1.429160e-003
3.853076e+003, 5.321276e-004
3.855005e+003, 1.989260e-003
3.856933e+003, 3.308787e-003
3.858862e+003, 3.476754e-003
3.860790e+003, 3.076825e-003
3.862719e+003, 3.147376e-003
3.864647e+003, 3.214008e-003
3.866576e+003, 3.589470e-003
3.868504e+003, 2.993049e-003
3.870433e+003, 2.281705e-003
3.872361e+003, 3.397161e-003
3.874290e+003, 3.923008e-003
3.876218e+003, 4.521141e-003
3.878146e+003, 4.457959e-003
3.880075e+003, 2.935714e-003
3.882003e+003, 2.674744e-003
3.883932e+003, 3.178357e-003
3.885860e+003, 3.071487e-003
3.887789e+003, 4.219428e-003
3.889717e+003, 4.688698e-003
3.891646e+003, 4.134869e-003
3.893574e+003, 3.664981e-003
3.895503e+003, 3.318246e-003
3.897431e+003, 2.625495e-003
3.899360e+003, 2.892115e-003
3.901288e+003, 3.251913e-003
3.903217e+003, 2.743099e-003
3.905145e+003, 3.597096e-003
3.907073e+003, 5.332768e-003
3.909002e+003, 5.832351e-003
3.910930e+003, 4.892803e-003
3.912859e+003, 4.544607e-003
3.914787e+003, 5.073979e-003
3.916716e+003, 4.641956e-003
3.918644e+003, 3.687742e-003
3.920573e+003, 3.233357e-003
3.922501e+003, 4.200154e-003
3.924430e+003, 5.406120e-003
3.926358e+003, 5.415074e-003
3.928287e+003, 4.366714e-003
3.930215e+003, 3.751082e-003
3.932144e+003, 3.970248e-003
3.934072e+003, 4.665646e-003
3.936000e+003, 4.661037e-003
3.937929e+003, 3.919069e-003
3.939857e+003, 3.847098e-003
3.941786e+003, 4.015679e-003
3.943714e+003, 3.684121e-003
3.945643e+003, 3.462458e-003
3.947571e+003, 3.960879e-003
3.949500e+003, 4.274795e-003
3.951428e+003, 3.959341e-003
3.953357e+003, 4.026567e-003
3.955285e+003, 3.812636e-003
3.957214e+003, 3.380932e-003
3.959142e+003, 2.784807e-003
3.961071e+003, 3.370396e-003
3.962999e+003, 3.909492e-003
3.964927e+003, 4.506986e-003
3.966856e+003, 4.234340e-003
3.968784e+003, 4.123352e-003
3.970713e+003, 4.003016e-003
3.972641e+003, 3.767151e-003
3.974570e+003, 3.630197e-003
3.976498e+003, 2.998210e-003
3.978427e+003, 2.706724e-003
3.980355e+003, 2.915217e-003
3.982284e+003, 3.719568e-003
3.984212e+003, 3.582654e-003
3.986141e+003, 3.664260e-003
3.988069e+003, 4.601519e-003
3.989998e+003, 4.897036e-003
3.991926e+003, 5.099374e-003
3.993854e+003, 4.838050e-003
3.995783e+003, 4.220665e-003
3.997711e+003, 3.903963e-003
3.999640e+003, 3.905513e-003
##END=



