##NAMES=Nesquehonite
##RRUFFID=R050639
##IDEAL CHEMISTRY=MgCO_3_&#183;3H_2_O
##LOCALITY=Nesquehoning, Pennsylvania, USA
##OWNER=RRUFF
##SOURCE=University of Arizona Mineral Museum
##DESCRIPTION=White to colorless bladed crystals
##STATUS=The identification of this mineral has been confirmed by X-ray diffraction and chemical analysis
##URL=rruff.info/R050639
##MEASURED CHEMISTRY=Mg_1.00_(HCO_3_)(OH)Â·2H_2_O ; C and H not measured but estimated by difference and charge balance
3.741225e+002, 3.208294e-001
3.760510e+002, 2.966349e-001
3.779795e+002, 2.980788e-001
3.799079e+002, 2.958185e-001
3.818364e+002, 2.859108e-001
3.837649e+002, 2.759781e-001
3.856933e+002, 2.591839e-001
3.876218e+002, 2.421770e-001
3.895503e+002, 2.367534e-001
3.914787e+002, 2.316013e-001
3.934072e+002, 2.163242e-001
3.953357e+002, 2.049573e-001
3.972641e+002, 1.997852e-001
3.991926e+002, 1.943758e-001
4.011211e+002, 1.886726e-001
4.030495e+002, 1.832683e-001
4.049780e+002, 1.785814e-001
4.069065e+002, 1.742126e-001
4.088349e+002, 1.709383e-001
4.107634e+002, 1.718589e-001
4.126919e+002, 1.702626e-001
4.146203e+002, 1.687499e-001
4.165488e+002, 1.687902e-001
4.184773e+002, 1.680999e-001
4.204057e+002, 1.644174e-001
4.223342e+002, 1.630871e-001
4.242627e+002, 1.644243e-001
4.261911e+002, 1.642179e-001
4.281196e+002, 1.624650e-001
4.300481e+002, 1.599367e-001
4.319765e+002, 1.555093e-001
4.339050e+002, 1.526013e-001
4.358335e+002, 1.493725e-001
4.377619e+002, 1.455511e-001
4.396904e+002, 1.429591e-001
4.416189e+002, 1.407542e-001
4.435473e+002, 1.374574e-001
4.454758e+002, 1.343915e-001
4.474043e+002, 1.322844e-001
4.493327e+002, 1.307286e-001
4.512612e+002, 1.292998e-001
4.531897e+002, 1.273081e-001
4.551181e+002, 1.252211e-001
4.570466e+002, 1.240157e-001
4.589751e+002, 1.236773e-001
4.609035e+002, 1.234069e-001
4.628320e+002, 1.223326e-001
4.647605e+002, 1.212346e-001
4.666889e+002, 1.207505e-001
4.686174e+002, 1.206843e-001
4.705459e+002, 1.208939e-001
4.724743e+002, 1.203463e-001
4.744028e+002, 1.193569e-001
4.763313e+002, 1.184066e-001
4.782597e+002, 1.179327e-001
4.801882e+002, 1.182841e-001
4.821167e+002, 1.176763e-001
4.840451e+002, 1.162188e-001
4.859736e+002, 1.156804e-001
4.879021e+002, 1.159516e-001
4.898305e+002, 1.156213e-001
4.917590e+002, 1.142541e-001
4.936875e+002, 1.133400e-001
4.956159e+002, 1.135786e-001
4.975444e+002, 1.129049e-001
4.994729e+002, 1.117142e-001
5.014013e+002, 1.110131e-001
5.033298e+002, 1.103532e-001
5.052583e+002, 1.092649e-001
5.071867e+002, 1.082680e-001
5.091152e+002, 1.072237e-001
5.110437e+002, 1.062645e-001
5.129721e+002, 1.052451e-001
5.149006e+002, 1.038861e-001
5.168290e+002, 1.024624e-001
5.187575e+002, 1.017582e-001
5.206860e+002, 1.012612e-001
5.226144e+002, 1.005947e-001
5.245429e+002, 9.948099e-002
5.264714e+002, 9.848041e-002
5.283998e+002, 9.754872e-002
5.303283e+002, 9.636692e-002
5.322568e+002, 9.550381e-002
5.341852e+002, 9.515493e-002
5.361137e+002, 9.475002e-002
5.380422e+002, 9.424836e-002
5.399706e+002, 9.416053e-002
5.418991e+002, 9.410386e-002
5.438276e+002, 9.378218e-002
5.457560e+002, 9.377719e-002
5.476845e+002, 9.426668e-002
5.496130e+002, 9.465072e-002
5.515414e+002, 9.522901e-002
5.534699e+002, 9.549341e-002
5.553984e+002, 9.563976e-002
5.573268e+002, 9.653225e-002
5.592553e+002, 9.757155e-002
5.611838e+002, 9.832726e-002
5.631122e+002, 9.900306e-002
5.650407e+002, 1.000737e-001
5.669692e+002, 1.009525e-001
5.688976e+002, 1.021094e-001
5.708261e+002, 1.035186e-001
5.727546e+002, 1.050933e-001
5.746830e+002, 1.064440e-001
5.766115e+002, 1.079108e-001
5.785400e+002, 1.095163e-001
5.804684e+002, 1.109140e-001
5.823969e+002, 1.125492e-001
5.843254e+002, 1.142589e-001
5.862538e+002, 1.160446e-001
5.881823e+002, 1.178282e-001
5.901108e+002, 1.195446e-001
5.920392e+002, 1.210856e-001
5.939677e+002, 1.225383e-001
5.958962e+002, 1.240403e-001
5.978246e+002, 1.253674e-001
5.997531e+002, 1.266959e-001
6.016816e+002, 1.279306e-001
6.036100e+002, 1.289376e-001
6.055385e+002, 1.293558e-001
6.074670e+002, 1.294663e-001
6.093954e+002, 1.299310e-001
6.113239e+002, 1.300134e-001
6.132524e+002, 1.296599e-001
6.151808e+002, 1.293302e-001
6.171093e+002, 1.291048e-001
6.190378e+002, 1.286433e-001
6.209662e+002, 1.281243e-001
6.228947e+002, 1.273357e-001
6.248232e+002, 1.263941e-001
6.267516e+002, 1.256563e-001
6.286801e+002, 1.245864e-001
6.306086e+002, 1.236571e-001
6.325370e+002, 1.231743e-001
6.344655e+002, 1.227422e-001
6.363940e+002, 1.223807e-001
6.383224e+002, 1.218775e-001
6.402509e+002, 1.212035e-001
6.421794e+002, 1.207253e-001
6.441078e+002, 1.203084e-001
6.460363e+002, 1.198357e-001
6.479648e+002, 1.194981e-001
6.498932e+002, 1.192520e-001
6.518217e+002, 1.188367e-001
6.537502e+002, 1.183911e-001
6.556786e+002, 1.183229e-001
6.576071e+002, 1.183219e-001
6.595356e+002, 1.180398e-001
6.614641e+002, 1.176212e-001
6.633925e+002, 1.173722e-001
6.653210e+002, 1.169491e-001
6.672495e+002, 1.165204e-001
6.691779e+002, 1.161565e-001
6.711064e+002, 1.158253e-001
6.730349e+002, 1.157137e-001
6.749633e+002, 1.156452e-001
6.768918e+002, 1.156403e-001
6.788203e+002, 1.158135e-001
6.807487e+002, 1.160408e-001
6.826772e+002, 1.163245e-001
6.846057e+002, 1.165132e-001
6.865341e+002, 1.168030e-001
6.884626e+002, 1.172586e-001
6.903911e+002, 1.179627e-001
6.923195e+002, 1.186073e-001
6.942480e+002, 1.197128e-001
6.961765e+002, 1.210469e-001
6.981049e+002, 1.217969e-001
7.000334e+002, 1.217602e-001
7.019619e+002, 1.210327e-001
7.038903e+002, 1.197165e-001
7.058188e+002, 1.181161e-001
7.077473e+002, 1.162149e-001
7.096757e+002, 1.144138e-001
7.116042e+002, 1.131097e-001
7.135327e+002, 1.117314e-001
7.154611e+002, 1.102459e-001
7.173896e+002, 1.088519e-001
7.193181e+002, 1.076252e-001
7.212465e+002, 1.066716e-001
7.231750e+002, 1.056166e-001
7.251035e+002, 1.044879e-001
7.270319e+002, 1.033093e-001
7.289604e+002, 1.021577e-001
7.308889e+002, 1.011938e-001
7.328173e+002, 1.003263e-001
7.347458e+002, 9.956056e-002
7.366743e+002, 9.886362e-002
7.386027e+002, 9.794602e-002
7.405312e+002, 9.725171e-002
7.424597e+002, 9.664066e-002
7.443881e+002, 9.594381e-002
7.463166e+002, 9.508764e-002
7.482451e+002, 9.369590e-002
7.501735e+002, 9.201238e-002
7.521020e+002, 9.020829e-002
7.540305e+002, 8.869354e-002
7.559589e+002, 8.716014e-002
7.578874e+002, 8.549283e-002
7.598159e+002, 8.372927e-002
7.617443e+002, 8.199139e-002
7.636728e+002, 8.035004e-002
7.656013e+002, 7.887607e-002
7.675297e+002, 7.751570e-002
7.694582e+002, 7.604268e-002
7.713867e+002, 7.462827e-002
7.733151e+002, 7.339279e-002
7.752436e+002, 7.240848e-002
7.771721e+002, 7.153662e-002
7.791005e+002, 7.057434e-002
7.810290e+002, 6.970127e-002
7.829575e+002, 6.909374e-002
7.848859e+002, 6.852072e-002
7.868144e+002, 6.791706e-002
7.887429e+002, 6.761236e-002
7.906713e+002, 6.763402e-002
7.925998e+002, 6.759226e-002
7.945283e+002, 6.734070e-002
7.964567e+002, 6.727090e-002
7.983852e+002, 6.737193e-002
8.003137e+002, 6.745478e-002
8.022421e+002, 6.742211e-002
8.041706e+002, 6.736706e-002
8.060991e+002, 6.744217e-002
8.080275e+002, 6.760173e-002
8.099560e+002, 6.771592e-002
8.118845e+002, 6.784903e-002
8.138129e+002, 6.815463e-002
8.157414e+002, 6.841270e-002
8.176699e+002, 6.855615e-002
8.195983e+002, 6.887401e-002
8.215268e+002, 6.942973e-002
8.234553e+002, 7.011035e-002
8.253837e+002, 7.076158e-002
8.273122e+002, 7.148399e-002
8.292407e+002, 7.231363e-002
8.311691e+002, 7.316539e-002
8.330976e+002, 7.418577e-002
8.350261e+002, 7.571743e-002
8.369545e+002, 7.805602e-002
8.388830e+002, 8.126902e-002
8.408115e+002, 8.569339e-002
8.427399e+002, 9.171744e-002
8.446684e+002, 9.995688e-002
8.465969e+002, 1.110064e-001
8.485253e+002, 1.250371e-001
8.504538e+002, 1.391163e-001
8.523823e+002, 1.451336e-001
8.543107e+002, 1.359699e-001
8.562392e+002, 1.143080e-001
8.581677e+002, 9.030166e-002
8.600961e+002, 7.160614e-002
8.620246e+002, 5.997855e-002
8.639531e+002, 5.355386e-002
8.658815e+002, 5.001217e-002
8.678100e+002, 4.775197e-002
8.697385e+002, 4.618436e-002
8.716669e+002, 4.540561e-002
8.735954e+002, 4.502551e-002
8.755239e+002, 4.460679e-002
8.774523e+002, 4.411054e-002
8.793808e+002, 4.363213e-002
8.813093e+002, 4.310609e-002
8.832377e+002, 4.248361e-002
8.851662e+002, 4.195732e-002
8.870947e+002, 4.122866e-002
8.890231e+002, 4.023529e-002
8.909516e+002, 3.934670e-002
8.928801e+002, 3.850513e-002
8.948085e+002, 3.775834e-002
8.967370e+002, 3.704836e-002
8.986655e+002, 3.645976e-002
9.005939e+002, 3.598448e-002
9.025224e+002, 3.554713e-002
9.044509e+002, 3.514054e-002
9.063793e+002, 3.484097e-002
9.083078e+002, 3.449586e-002
9.102363e+002, 3.414698e-002
9.121647e+002, 3.385315e-002
9.140932e+002, 3.344205e-002
9.160217e+002, 3.310093e-002
9.179501e+002, 3.295956e-002
9.198786e+002, 3.288660e-002
9.218071e+002, 3.270458e-002
9.237355e+002, 3.233957e-002
9.256640e+002, 3.189851e-002
9.275925e+002, 3.158232e-002
9.295209e+002, 3.138924e-002
9.314494e+002, 3.111658e-002
9.333779e+002, 3.093576e-002
9.353063e+002, 3.066691e-002
9.372348e+002, 3.033582e-002
9.391633e+002, 3.003200e-002
9.410917e+002, 2.977643e-002
9.430202e+002, 2.951817e-002
9.449487e+002, 2.929819e-002
9.468771e+002, 2.901537e-002
9.488056e+002, 2.890882e-002
9.507341e+002, 2.874320e-002
9.526625e+002, 2.862309e-002
9.545910e+002, 2.854917e-002
9.565195e+002, 2.834359e-002
9.584479e+002, 2.811853e-002
9.603764e+002, 2.805743e-002
9.623049e+002, 2.788101e-002
9.642333e+002, 2.776053e-002
9.661618e+002, 2.774138e-002
9.680903e+002, 2.762513e-002
9.700187e+002, 2.745578e-002
9.719472e+002, 2.744320e-002
9.738757e+002, 2.735336e-002
9.758041e+002, 2.724799e-002
9.777326e+002, 2.719368e-002
9.796611e+002, 2.714116e-002
9.815895e+002, 2.715147e-002
9.835180e+002, 2.714084e-002
9.854465e+002, 2.712882e-002
9.873749e+002, 2.706913e-002
9.893034e+002, 2.695046e-002
9.912319e+002, 2.681794e-002
9.931603e+002, 2.682224e-002
9.950888e+002, 2.689158e-002
9.970173e+002, 2.690496e-002
9.989457e+002, 2.706426e-002
1.000874e+003, 2.706809e-002
1.002803e+003, 2.700519e-002
1.004731e+003, 2.706633e-002
1.006660e+003, 2.724361e-002
1.008588e+003, 2.736242e-002
1.010517e+003, 2.739454e-002
1.012445e+003, 2.739112e-002
1.014373e+003, 2.754947e-002
1.016302e+003, 2.757095e-002
1.018230e+003, 2.750351e-002
1.020159e+003, 2.753553e-002
1.022087e+003, 2.760362e-002
1.024016e+003, 2.761096e-002
1.025944e+003, 2.760563e-002
1.027873e+003, 2.763408e-002
1.029801e+003, 2.759805e-002
1.031730e+003, 2.752074e-002
1.033658e+003, 2.757076e-002
1.035587e+003, 2.748926e-002
1.037515e+003, 2.746934e-002
1.039443e+003, 2.736730e-002
1.041372e+003, 2.717903e-002
1.043300e+003, 2.722610e-002
1.045229e+003, 2.730920e-002
1.047157e+003, 2.726563e-002
1.049086e+003, 2.731821e-002
1.051014e+003, 2.739664e-002
1.052943e+003, 2.750437e-002
1.054871e+003, 2.757386e-002
1.056800e+003, 2.756303e-002
1.058728e+003, 2.769592e-002
1.060657e+003, 2.792030e-002
1.062585e+003, 2.806044e-002
1.064514e+003, 2.807808e-002
1.066442e+003, 2.821205e-002
1.068370e+003, 2.844226e-002
1.070299e+003, 2.856946e-002
1.072227e+003, 2.867659e-002
1.074156e+003, 2.879975e-002
1.076084e+003, 2.907353e-002
1.078013e+003, 2.950164e-002
1.079941e+003, 2.988613e-002
1.081870e+003, 3.023969e-002
1.083798e+003, 3.066631e-002
1.085727e+003, 3.106972e-002
1.087655e+003, 3.156937e-002
1.089584e+003, 3.229985e-002
1.091512e+003, 3.316640e-002
1.093441e+003, 3.434544e-002
1.095369e+003, 3.612395e-002
1.097297e+003, 3.820381e-002
1.099226e+003, 3.964414e-002
1.101154e+003, 3.926587e-002
1.103083e+003, 3.697159e-002
1.105011e+003, 3.420047e-002
1.106940e+003, 3.222958e-002
1.108868e+003, 3.126408e-002
1.110797e+003, 3.075375e-002
1.112725e+003, 3.039569e-002
1.114654e+003, 3.023701e-002
1.116582e+003, 3.003330e-002
1.118511e+003, 3.003340e-002
1.120439e+003, 3.001955e-002
1.122368e+003, 3.009309e-002
1.124296e+003, 3.009266e-002
1.126224e+003, 3.003963e-002
1.128153e+003, 3.021092e-002
1.130081e+003, 3.031936e-002
1.132010e+003, 3.033990e-002
1.133938e+003, 3.049814e-002
1.135867e+003, 3.067002e-002
1.137795e+003, 3.080651e-002
1.139724e+003, 3.096935e-002
1.141652e+003, 3.122688e-002
1.143581e+003, 3.155138e-002
1.145509e+003, 3.183731e-002
1.147438e+003, 3.198187e-002
1.149366e+003, 3.231687e-002
1.151295e+003, 3.262422e-002
1.153223e+003, 3.289145e-002
1.155151e+003, 3.313389e-002
1.157080e+003, 3.343488e-002
1.159008e+003, 3.388080e-002
1.160937e+003, 3.438356e-002
1.162865e+003, 3.468926e-002
1.164794e+003, 3.482989e-002
1.166722e+003, 3.503302e-002
1.168651e+003, 3.532509e-002
1.170579e+003, 3.562994e-002
1.172508e+003, 3.582654e-002
1.174436e+003, 3.605496e-002
1.176365e+003, 3.637899e-002
1.178293e+003, 3.670927e-002
1.180222e+003, 3.701237e-002
1.182150e+003, 3.739617e-002
1.184078e+003, 3.772807e-002
1.186007e+003, 3.799618e-002
1.187935e+003, 3.851098e-002
1.189864e+003, 3.913684e-002
1.191792e+003, 3.963156e-002
1.193721e+003, 3.998408e-002
1.195649e+003, 4.033675e-002
1.197578e+003, 4.079840e-002
1.199506e+003, 4.119156e-002
1.201435e+003, 4.156317e-002
1.203363e+003, 4.201919e-002
1.205292e+003, 4.234498e-002
1.207220e+003, 4.293604e-002
1.209149e+003, 4.350261e-002
1.211077e+003, 4.386629e-002
1.213005e+003, 4.416917e-002
1.214934e+003, 4.462792e-002
1.216862e+003, 4.525209e-002
1.218791e+003, 4.592197e-002
1.220719e+003, 4.649198e-002
1.222648e+003, 4.710807e-002
1.224576e+003, 4.760509e-002
1.226505e+003, 4.809458e-002
1.228433e+003, 4.866506e-002
1.230362e+003, 4.927890e-002
1.232290e+003, 4.993948e-002
1.234219e+003, 5.065996e-002
1.236147e+003, 5.134879e-002
1.238076e+003, 5.196064e-002
1.240004e+003, 5.257798e-002
1.241932e+003, 5.329372e-002
1.243861e+003, 5.399733e-002
1.245789e+003, 5.473853e-002
1.247718e+003, 5.552890e-002
1.249646e+003, 5.630584e-002
1.251575e+003, 5.706599e-002
1.253503e+003, 5.793488e-002
1.255432e+003, 5.877677e-002
1.257360e+003, 5.965569e-002
1.259289e+003, 6.054009e-002
1.261217e+003, 6.141531e-002
1.263146e+003, 6.235519e-002
1.265074e+003, 6.341548e-002
1.267003e+003, 6.442515e-002
1.268931e+003, 6.558660e-002
1.270859e+003, 6.675878e-002
1.272788e+003, 6.807291e-002
1.274716e+003, 6.942918e-002
1.276645e+003, 7.077373e-002
1.278573e+003, 7.195628e-002
1.280502e+003, 7.308345e-002
1.282430e+003, 7.412345e-002
1.284359e+003, 7.524511e-002
1.286287e+003, 7.654351e-002
1.288216e+003, 7.778318e-002
1.290144e+003, 7.896727e-002
1.292073e+003, 8.028995e-002
1.294001e+003, 8.171411e-002
1.295930e+003, 8.325616e-002
1.297858e+003, 8.479513e-002
1.299786e+003, 8.647032e-002
1.301715e+003, 8.817954e-002
1.303643e+003, 8.996890e-002
1.305572e+003, 9.197616e-002
1.307500e+003, 9.410489e-002
1.309429e+003, 9.614763e-002
1.311357e+003, 9.823673e-002
1.313286e+003, 1.004696e-001
1.315214e+003, 1.027862e-001
1.317143e+003, 1.052795e-001
1.319071e+003, 1.078314e-001
1.321000e+003, 1.106204e-001
1.322928e+003, 1.134398e-001
1.324857e+003, 1.164077e-001
1.326785e+003, 1.197170e-001
1.328714e+003, 1.231075e-001
1.330642e+003, 1.266999e-001
1.332570e+003, 1.304725e-001
1.334499e+003, 1.345178e-001
1.336427e+003, 1.387835e-001
1.338356e+003, 1.432495e-001
1.340284e+003, 1.477966e-001
1.342213e+003, 1.526884e-001
1.344141e+003, 1.579439e-001
1.346070e+003, 1.632886e-001
1.347998e+003, 1.688075e-001
1.349927e+003, 1.747635e-001
1.351855e+003, 1.810305e-001
1.353784e+003, 1.875838e-001
1.355712e+003, 1.946926e-001
1.357641e+003, 2.025122e-001
1.359569e+003, 2.107592e-001
1.361497e+003, 2.194927e-001
1.363426e+003, 2.288019e-001
1.365354e+003, 2.385940e-001
1.367283e+003, 2.489427e-001
1.369211e+003, 2.600248e-001
1.371140e+003, 2.716255e-001
1.373068e+003, 2.836454e-001
1.374997e+003, 2.962715e-001
1.376925e+003, 3.094116e-001
1.378854e+003, 3.229784e-001
1.380782e+003, 3.367726e-001
1.382711e+003, 3.506182e-001
1.384639e+003, 3.645408e-001
1.386568e+003, 3.785312e-001
1.388496e+003, 3.927137e-001
1.390424e+003, 4.074192e-001
1.392353e+003, 4.224724e-001
1.394281e+003, 4.378565e-001
1.396210e+003, 4.523141e-001
1.398138e+003, 4.656961e-001
1.400067e+003, 4.774424e-001
1.401995e+003, 4.864812e-001
1.403924e+003, 4.923398e-001
1.405852e+003, 4.953503e-001
1.407781e+003, 4.957208e-001
1.409709e+003, 4.934152e-001
1.411638e+003, 4.887928e-001
1.413566e+003, 4.823194e-001
1.415495e+003, 4.742163e-001
1.417423e+003, 4.648405e-001
1.419351e+003, 4.543982e-001
1.421280e+003, 4.429835e-001
1.423208e+003, 4.309408e-001
1.425137e+003, 4.185703e-001
1.427065e+003, 4.059907e-001
1.428994e+003, 3.934219e-001
1.430922e+003, 3.808149e-001
1.432851e+003, 3.682643e-001
1.434779e+003, 3.563744e-001
1.436708e+003, 3.451338e-001
1.438636e+003, 3.343120e-001
1.440565e+003, 3.242677e-001
1.442493e+003, 3.149740e-001
1.444422e+003, 3.066001e-001
1.446350e+003, 2.993041e-001
1.448278e+003, 2.928022e-001
1.450207e+003, 2.875457e-001
1.452135e+003, 2.835174e-001
1.454064e+003, 2.809266e-001
1.455992e+003, 2.797261e-001
1.457921e+003, 2.795878e-001
1.459849e+003, 2.807582e-001
1.461778e+003, 2.834654e-001
1.463706e+003, 2.874965e-001
1.465635e+003, 2.923929e-001
1.467563e+003, 2.973907e-001
1.469492e+003, 3.018233e-001
1.471420e+003, 3.046295e-001
1.473349e+003, 3.040932e-001
1.475277e+003, 2.989783e-001
1.477205e+003, 2.892321e-001
1.479134e+003, 2.753385e-001
1.481062e+003, 2.580889e-001
1.482991e+003, 2.388631e-001
1.484919e+003, 2.199640e-001
1.486848e+003, 2.035718e-001
1.488776e+003, 1.913198e-001
1.490705e+003, 1.842290e-001
1.492633e+003, 1.829299e-001
1.494562e+003, 1.874495e-001
1.496490e+003, 1.972852e-001
1.498419e+003, 2.122763e-001
1.500347e+003, 2.322841e-001
1.502276e+003, 2.568888e-001
1.504204e+003, 2.853360e-001
1.506132e+003, 3.165135e-001
1.508061e+003, 3.482115e-001
1.509989e+003, 3.779367e-001
1.511918e+003, 4.025909e-001
1.513846e+003, 4.192819e-001
1.515775e+003, 4.263157e-001
1.517703e+003, 4.233471e-001
1.519632e+003, 4.122474e-001
1.521560e+003, 3.954222e-001
1.523489e+003, 3.752270e-001
1.525417e+003, 3.542227e-001
1.527346e+003, 3.335659e-001
1.529274e+003, 3.139236e-001
1.531203e+003, 2.954247e-001
1.533131e+003, 2.777783e-001
1.535059e+003, 2.612021e-001
1.536988e+003, 2.458979e-001
1.538916e+003, 2.316791e-001
1.540845e+003, 2.180254e-001
1.542773e+003, 2.048670e-001
1.544702e+003, 1.925109e-001
1.546630e+003, 1.810521e-001
1.548559e+003, 1.704652e-001
1.550487e+003, 1.604729e-001
1.552416e+003, 1.510113e-001
1.554344e+003, 1.422997e-001
1.556273e+003, 1.340855e-001
1.558201e+003, 1.265308e-001
1.560130e+003, 1.191427e-001
1.562058e+003, 1.120829e-001
1.563986e+003, 1.057163e-001
1.565915e+003, 9.970868e-002
1.567843e+003, 9.411891e-002
1.569772e+003, 8.898818e-002
1.571700e+003, 8.424906e-002
1.573629e+003, 8.016213e-002
1.575557e+003, 7.660232e-002
1.577486e+003, 7.308745e-002
1.579414e+003, 6.981875e-002
1.581343e+003, 6.721394e-002
1.583271e+003, 6.502201e-002
1.585200e+003, 6.300309e-002
1.587128e+003, 6.122788e-002
1.589057e+003, 5.991890e-002
1.590985e+003, 5.889916e-002
1.592913e+003, 5.795461e-002
1.594842e+003, 5.710767e-002
1.596770e+003, 5.647395e-002
1.598699e+003, 5.605996e-002
1.600627e+003, 5.573511e-002
1.602556e+003, 5.556717e-002
1.604484e+003, 5.560093e-002
1.606413e+003, 5.567306e-002
1.608341e+003, 5.577719e-002
1.610270e+003, 5.620176e-002
1.612198e+003, 5.672735e-002
1.614127e+003, 5.742358e-002
1.616055e+003, 5.828914e-002
1.617984e+003, 5.892917e-002
1.619912e+003, 5.981378e-002
1.621840e+003, 6.082664e-002
1.623769e+003, 6.185575e-002
1.625697e+003, 6.298283e-002
1.627626e+003, 6.416382e-002
1.629554e+003, 6.534579e-002
1.631483e+003, 6.659056e-002
1.633411e+003, 6.774639e-002
1.635340e+003, 6.880904e-002
1.637268e+003, 6.936813e-002
1.639197e+003, 6.964753e-002
1.641125e+003, 6.984892e-002
1.643054e+003, 7.001742e-002
1.644982e+003, 7.010416e-002
1.646911e+003, 6.987696e-002
1.648839e+003, 6.933250e-002
1.650767e+003, 6.899800e-002
1.652696e+003, 6.900065e-002
1.654624e+003, 6.835068e-002
1.656553e+003, 6.756317e-002
1.658481e+003, 6.721923e-002
1.660410e+003, 6.687087e-002
1.662338e+003, 6.649730e-002
1.664267e+003, 6.598938e-002
1.666195e+003, 6.538220e-002
1.668124e+003, 6.485400e-002
1.670052e+003, 6.398176e-002
1.671981e+003, 6.261214e-002
1.673909e+003, 6.141566e-002
1.675838e+003, 6.003043e-002
1.677766e+003, 5.812089e-002
1.679694e+003, 5.617502e-002
1.681623e+003, 5.409396e-002
1.683551e+003, 5.221988e-002
1.685480e+003, 5.005992e-002
1.687408e+003, 4.769165e-002
1.689337e+003, 4.578887e-002
1.691265e+003, 4.418065e-002
1.693194e+003, 4.278238e-002
1.695122e+003, 4.172467e-002
1.697051e+003, 4.043671e-002
1.698979e+003, 3.923403e-002
1.700908e+003, 3.817626e-002
1.702836e+003, 3.693778e-002
1.704765e+003, 3.591311e-002
1.706693e+003, 3.483706e-002
1.708621e+003, 3.398339e-002
1.710550e+003, 3.300867e-002
1.712478e+003, 3.187466e-002
1.714407e+003, 3.082522e-002
1.716335e+003, 2.989762e-002
1.718264e+003, 2.867465e-002
1.720192e+003, 2.739794e-002
1.722121e+003, 2.638577e-002
1.724049e+003, 2.525134e-002
1.725978e+003, 2.406255e-002
1.727906e+003, 2.304262e-002
1.729835e+003, 2.211017e-002
1.731763e+003, 2.112227e-002
1.733692e+003, 2.016552e-002
1.735620e+003, 1.909413e-002
1.737548e+003, 1.798251e-002
1.739477e+003, 1.704043e-002
1.741405e+003, 1.617042e-002
1.743334e+003, 1.535618e-002
1.745262e+003, 1.475432e-002
1.747191e+003, 1.413125e-002
1.749119e+003, 1.340631e-002
1.751048e+003, 1.275002e-002
1.752976e+003, 1.209899e-002
1.754905e+003, 1.184442e-002
1.756833e+003, 1.171083e-002
1.758762e+003, 1.143336e-002
1.760690e+003, 1.101805e-002
1.762619e+003, 1.069525e-002
1.764547e+003, 1.060486e-002
1.766475e+003, 1.025850e-002
1.768404e+003, 9.929447e-003
1.770332e+003, 9.813360e-003
1.772261e+003, 9.742690e-003
1.774189e+003, 9.573219e-003
1.776118e+003, 9.324591e-003
1.778046e+003, 9.087824e-003
1.779975e+003, 9.119523e-003
1.781903e+003, 9.371636e-003
1.783832e+003, 9.601729e-003
1.785760e+003, 9.696824e-003
1.787689e+003, 9.653796e-003
1.789617e+003, 9.882303e-003
1.791546e+003, 1.011651e-002
1.793474e+003, 1.006672e-002
1.795402e+003, 9.837737e-003
1.797331e+003, 9.755373e-003
1.799259e+003, 9.703001e-003
1.801188e+003, 9.512570e-003
1.803116e+003, 9.194803e-003
1.805045e+003, 8.847741e-003
1.806973e+003, 8.607095e-003
1.808902e+003, 8.703182e-003
1.810830e+003, 8.480195e-003
1.812759e+003, 8.002137e-003
1.814687e+003, 7.525711e-003
1.816616e+003, 7.278519e-003
1.818544e+003, 7.393712e-003
1.820473e+003, 7.504032e-003
1.822401e+003, 7.299566e-003
1.824329e+003, 7.209440e-003
1.826258e+003, 6.924555e-003
1.828186e+003, 6.883107e-003
1.830115e+003, 6.794952e-003
1.832043e+003, 6.561354e-003
1.833972e+003, 6.557846e-003
1.835900e+003, 6.512916e-003
1.837829e+003, 6.493911e-003
1.839757e+003, 6.677432e-003
1.841686e+003, 6.567093e-003
1.843614e+003, 6.361944e-003
1.845543e+003, 6.326994e-003
1.847471e+003, 6.389506e-003
1.849400e+003, 6.357757e-003
1.851328e+003, 6.339284e-003
1.853256e+003, 6.217967e-003
1.855185e+003, 6.185350e-003
1.857113e+003, 6.042107e-003
1.859042e+003, 6.032121e-003
1.860970e+003, 5.994396e-003
1.862899e+003, 6.074735e-003
1.864827e+003, 6.322858e-003
1.866756e+003, 6.344359e-003
1.868684e+003, 6.289760e-003
1.870613e+003, 6.200125e-003
1.872541e+003, 6.133935e-003
1.874470e+003, 6.167725e-003
1.876398e+003, 6.153585e-003
1.878327e+003, 6.037324e-003
1.880255e+003, 6.069507e-003
1.882183e+003, 6.167908e-003
1.884112e+003, 5.806465e-003
1.886040e+003, 5.659296e-003
1.887969e+003, 5.916765e-003
1.889897e+003, 5.837286e-003
1.891826e+003, 5.641500e-003
1.893754e+003, 5.527343e-003
1.895683e+003, 5.248400e-003
1.897611e+003, 5.131622e-003
1.899540e+003, 5.280678e-003
1.901468e+003, 5.538885e-003
1.903397e+003, 5.429781e-003
1.905325e+003, 5.463243e-003
1.907254e+003, 5.579086e-003
1.909182e+003, 5.620011e-003
1.911110e+003, 5.680582e-003
1.913039e+003, 5.523839e-003
1.914967e+003, 5.746223e-003
1.916896e+003, 5.964175e-003
1.918824e+003, 5.852230e-003
1.920753e+003, 5.687391e-003
1.922681e+003, 5.375595e-003
1.924610e+003, 5.321941e-003
1.926538e+003, 5.556327e-003
1.928467e+003, 5.847277e-003
1.930395e+003, 5.748593e-003
1.932324e+003, 5.398365e-003
1.934252e+003, 5.487611e-003
1.936181e+003, 5.661895e-003
1.938109e+003, 5.406642e-003
1.940037e+003, 5.082657e-003
1.941966e+003, 5.058256e-003
1.943894e+003, 5.224184e-003
1.945823e+003, 5.026014e-003
1.947751e+003, 5.133124e-003
1.949680e+003, 5.551344e-003
1.951608e+003, 5.228389e-003
1.953537e+003, 4.623190e-003
1.955465e+003, 4.446796e-003
1.957394e+003, 4.810361e-003
1.959322e+003, 5.375200e-003
1.961251e+003, 5.191256e-003
1.963179e+003, 5.317116e-003
1.965108e+003, 5.330529e-003
1.967036e+003, 5.259817e-003
1.968964e+003, 5.101277e-003
1.970893e+003, 4.681861e-003
1.972821e+003, 4.392303e-003
1.974750e+003, 5.637281e-003
1.976678e+003, 7.602732e-003
1.978607e+003, 7.894940e-003
1.980535e+003, 7.075370e-003
1.982464e+003, 7.067359e-003
1.984392e+003, 7.523153e-003
1.986321e+003, 7.212572e-003
1.988249e+003, 6.733961e-003
1.990178e+003, 6.018719e-003
1.992106e+003, 5.695332e-003
1.994035e+003, 6.182023e-003
1.995963e+003, 6.410501e-003
1.997891e+003, 7.165008e-003
1.999820e+003, 7.478309e-003
2.001748e+003, 6.492094e-003
2.003677e+003, 5.683839e-003
2.005605e+003, 5.624296e-003
2.007534e+003, 6.074355e-003
2.009462e+003, 6.549982e-003
2.011391e+003, 6.727242e-003
2.013319e+003, 7.318612e-003
2.015248e+003, 6.773922e-003
2.017176e+003, 6.178175e-003
2.019105e+003, 6.474582e-003
2.021033e+003, 6.421672e-003
2.022962e+003, 6.421452e-003
2.024890e+003, 6.867865e-003
2.026818e+003, 6.631794e-003
2.028747e+003, 6.944902e-003
2.030675e+003, 7.068360e-003
2.032604e+003, 7.588745e-003
2.034532e+003, 7.428762e-003
2.036461e+003, 7.691897e-003
2.038389e+003, 8.344880e-003
2.040318e+003, 8.135172e-003
2.042246e+003, 7.596351e-003
2.044175e+003, 7.905320e-003
2.046103e+003, 8.054040e-003
2.048031e+003, 8.075122e-003
2.049960e+003, 9.254689e-003
2.051888e+003, 8.644162e-003
2.053817e+003, 8.029331e-003
2.055745e+003, 8.287431e-003
2.057674e+003, 8.239879e-003
2.059602e+003, 8.307663e-003
2.061531e+003, 8.410797e-003
2.063459e+003, 8.699465e-003
2.065388e+003, 8.472127e-003
2.067316e+003, 8.351845e-003
2.069245e+003, 8.301230e-003
2.071173e+003, 8.519897e-003
2.073102e+003, 8.082891e-003
2.075030e+003, 8.343314e-003
2.076958e+003, 8.718368e-003
2.078887e+003, 8.590292e-003
2.080815e+003, 8.160623e-003
2.082744e+003, 7.868524e-003
2.084672e+003, 8.167525e-003
2.086601e+003, 8.410913e-003
2.088529e+003, 8.219924e-003
2.090458e+003, 8.045315e-003
2.092386e+003, 7.548772e-003
2.094315e+003, 7.146346e-003
2.096243e+003, 7.752785e-003
2.098172e+003, 9.140626e-003
2.100100e+003, 9.258821e-003
2.102029e+003, 8.820650e-003
2.103957e+003, 8.655108e-003
2.105885e+003, 8.475197e-003
2.107814e+003, 8.359395e-003
2.109742e+003, 8.636920e-003
2.111671e+003, 9.123251e-003
2.113599e+003, 9.128896e-003
2.115528e+003, 8.327174e-003
2.117456e+003, 7.937317e-003
2.119385e+003, 8.177188e-003
2.121313e+003, 8.130736e-003
2.123242e+003, 8.193986e-003
2.125170e+003, 8.287609e-003
2.127099e+003, 7.531243e-003
2.129027e+003, 6.656238e-003
2.130956e+003, 6.341157e-003
2.132884e+003, 6.085929e-003
2.134813e+003, 6.583848e-003
2.136741e+003, 7.053882e-003
2.138669e+003, 7.260629e-003
2.140598e+003, 7.614935e-003
2.142526e+003, 7.586868e-003
2.144455e+003, 7.536175e-003
2.146383e+003, 6.817884e-003
2.148312e+003, 6.884315e-003
2.150240e+003, 7.381054e-003
2.152169e+003, 6.946244e-003
2.154097e+003, 5.808994e-003
2.156026e+003, 5.132490e-003
2.157954e+003, 6.316610e-003
2.159883e+003, 1.001637e-002
2.161811e+003, 1.104089e-002
2.163740e+003, 1.047979e-002
2.165668e+003, 1.022947e-002
2.167596e+003, 9.805651e-003
2.169525e+003, 8.816860e-003
2.171453e+003, 8.567710e-003
2.173382e+003, 8.884727e-003
2.175310e+003, 9.656812e-003
2.177239e+003, 1.029375e-002
2.179167e+003, 1.030177e-002
2.181096e+003, 1.014615e-002
2.183024e+003, 1.048418e-002
2.184953e+003, 1.134179e-002
2.186881e+003, 1.192990e-002
2.188810e+003, 1.178621e-002
2.190738e+003, 1.199681e-002
2.192667e+003, 1.191739e-002
2.194595e+003, 1.180484e-002
2.196523e+003, 1.143396e-002
2.198452e+003, 1.102661e-002
2.200380e+003, 1.117583e-002
2.202309e+003, 1.215654e-002
2.204237e+003, 1.240614e-002
2.206166e+003, 1.164308e-002
2.208094e+003, 1.071963e-002
2.210023e+003, 1.110338e-002
2.211951e+003, 1.169787e-002
2.213880e+003, 1.163122e-002
2.215808e+003, 1.141347e-002
2.217737e+003, 1.203215e-002
2.219665e+003, 1.282048e-002
2.221594e+003, 1.253552e-002
2.223522e+003, 1.142084e-002
2.225450e+003, 1.160581e-002
2.227379e+003, 1.203297e-002
2.229307e+003, 1.227811e-002
2.231236e+003, 1.254424e-002
2.233164e+003, 1.208461e-002
2.235093e+003, 1.141928e-002
2.237021e+003, 1.189318e-002
2.238950e+003, 1.187520e-002
2.240878e+003, 1.195548e-002
2.242807e+003, 1.230512e-002
2.244735e+003, 1.262759e-002
2.246664e+003, 1.234249e-002
2.248592e+003, 1.175568e-002
2.250521e+003, 1.177821e-002
2.252449e+003, 1.224194e-002
2.254377e+003, 1.304845e-002
2.256306e+003, 1.317538e-002
2.258234e+003, 1.282088e-002
2.260163e+003, 1.312193e-002
2.262091e+003, 1.294081e-002
2.264020e+003, 1.234843e-002
2.265948e+003, 1.216912e-002
2.267877e+003, 1.249077e-002
2.269805e+003, 1.292939e-002
2.271734e+003, 1.339350e-002
2.273662e+003, 1.341235e-002
2.275591e+003, 1.333606e-002
2.277519e+003, 1.339204e-002
2.279448e+003, 1.371670e-002
2.281376e+003, 1.357870e-002
2.283304e+003, 1.377105e-002
2.285233e+003, 1.387874e-002
2.287161e+003, 1.391489e-002
2.289090e+003, 1.395769e-002
2.291018e+003, 1.393427e-002
2.292947e+003, 1.384692e-002
2.294875e+003, 1.384384e-002
2.296804e+003, 1.389329e-002
2.298732e+003, 1.370308e-002
2.300661e+003, 1.344397e-002
2.302589e+003, 1.365074e-002
2.304518e+003, 1.362223e-002
2.306446e+003, 1.319649e-002
2.308375e+003, 1.313189e-002
2.310303e+003, 1.347130e-002
2.312231e+003, 1.356400e-002
2.314160e+003, 1.362785e-002
2.316088e+003, 1.373435e-002
2.318017e+003, 1.399910e-002
2.319945e+003, 1.441989e-002
2.321874e+003, 1.499354e-002
2.323802e+003, 1.515277e-002
2.325731e+003, 1.416009e-002
2.327659e+003, 1.309603e-002
2.329588e+003, 1.310586e-002
2.331516e+003, 1.333884e-002
2.333445e+003, 1.303702e-002
2.335373e+003, 1.280609e-002
2.337302e+003, 1.291086e-002
2.339230e+003, 1.291296e-002
2.341158e+003, 1.287717e-002
2.343087e+003, 1.278133e-002
2.345015e+003, 1.258344e-002
2.346944e+003, 1.224208e-002
2.348872e+003, 1.197996e-002
2.350801e+003, 1.212473e-002
2.352729e+003, 1.261655e-002
2.354658e+003, 1.264948e-002
2.356586e+003, 1.250395e-002
2.358515e+003, 1.243619e-002
2.360443e+003, 1.225701e-002
2.362372e+003, 1.211692e-002
2.364300e+003, 1.217540e-002
2.366229e+003, 1.208537e-002
2.368157e+003, 1.180524e-002
2.370085e+003, 1.153233e-002
2.372014e+003, 1.145906e-002
2.373942e+003, 1.135432e-002
2.375871e+003, 1.132216e-002
2.377799e+003, 1.128961e-002
2.379728e+003, 1.109615e-002
2.381656e+003, 1.090104e-002
2.383585e+003, 1.058371e-002
2.385513e+003, 1.052297e-002
2.387442e+003, 1.074071e-002
2.389370e+003, 1.080834e-002
2.391299e+003, 1.094421e-002
2.393227e+003, 1.061523e-002
2.395156e+003, 1.032614e-002
2.397084e+003, 1.052073e-002
2.399012e+003, 1.079244e-002
2.400941e+003, 1.068674e-002
2.402869e+003, 1.076096e-002
2.404798e+003, 1.069425e-002
2.406726e+003, 1.059213e-002
2.408655e+003, 1.082638e-002
2.410583e+003, 1.092907e-002
2.412512e+003, 1.097788e-002
2.414440e+003, 1.098496e-002
2.416369e+003, 1.055515e-002
2.418297e+003, 1.040373e-002
2.420226e+003, 1.072624e-002
2.422154e+003, 1.094188e-002
2.424083e+003, 1.073327e-002
2.426011e+003, 1.050633e-002
2.427939e+003, 1.047479e-002
2.429868e+003, 1.070374e-002
2.431796e+003, 1.087439e-002
2.433725e+003, 1.098478e-002
2.435653e+003, 1.100278e-002
2.437582e+003, 1.086460e-002
2.439510e+003, 1.068906e-002
2.441439e+003, 1.087975e-002
2.443367e+003, 1.099910e-002
2.445296e+003, 1.097708e-002
2.447224e+003, 1.092011e-002
2.449153e+003, 1.090305e-002
2.451081e+003, 1.097474e-002
2.453010e+003, 1.116915e-002
2.454938e+003, 1.088829e-002
2.456866e+003, 1.053801e-002
2.458795e+003, 1.053213e-002
2.460723e+003, 1.053051e-002
2.462652e+003, 1.062084e-002
2.464580e+003, 1.082621e-002
2.466509e+003, 1.070128e-002
2.468437e+003, 1.087909e-002
2.470366e+003, 1.121550e-002
2.472294e+003, 1.108727e-002
2.474223e+003, 1.098609e-002
2.476151e+003, 1.128057e-002
2.478080e+003, 1.152918e-002
2.480008e+003, 1.158940e-002
2.481937e+003, 1.132886e-002
2.483865e+003, 1.151342e-002
2.485793e+003, 1.160228e-002
2.487722e+003, 1.155904e-002
2.489650e+003, 1.142468e-002
2.491579e+003, 1.148284e-002
2.493507e+003, 1.183414e-002
2.495436e+003, 1.234563e-002
2.497364e+003, 1.256351e-002
2.499293e+003, 1.260697e-002
2.501221e+003, 1.292177e-002
2.503150e+003, 1.315568e-002
2.505078e+003, 1.323555e-002
2.507007e+003, 1.365506e-002
2.508935e+003, 1.394836e-002
2.510864e+003, 1.381196e-002
2.512792e+003, 1.372333e-002
2.514720e+003, 1.368863e-002
2.516649e+003, 1.354850e-002
2.518577e+003, 1.338704e-002
2.520506e+003, 1.291348e-002
2.522434e+003, 1.255638e-002
2.524363e+003, 1.240507e-002
2.526291e+003, 1.248439e-002
2.528220e+003, 1.283916e-002
2.530148e+003, 1.292784e-002
2.532077e+003, 1.256059e-002
2.534005e+003, 1.249661e-002
2.535934e+003, 1.249423e-002
2.537862e+003, 1.250611e-002
2.539791e+003, 1.250778e-002
2.541719e+003, 1.215874e-002
2.543647e+003, 1.196739e-002
2.545576e+003, 1.222861e-002
2.547504e+003, 1.233595e-002
2.549433e+003, 1.246548e-002
2.551361e+003, 1.244823e-002
2.553290e+003, 1.243488e-002
2.555218e+003, 1.232014e-002
2.557147e+003, 1.212452e-002
2.559075e+003, 1.179674e-002
2.561004e+003, 1.182321e-002
2.562932e+003, 1.170106e-002
2.564861e+003, 1.152558e-002
2.566789e+003, 1.183522e-002
2.568718e+003, 1.210039e-002
2.570646e+003, 1.205592e-002
2.572574e+003, 1.197252e-002
2.574503e+003, 1.242968e-002
2.576431e+003, 1.253127e-002
2.578360e+003, 1.232175e-002
2.580288e+003, 1.268569e-002
2.582217e+003, 1.308888e-002
2.584145e+003, 1.296630e-002
2.586074e+003, 1.310904e-002
2.588002e+003, 1.347718e-002
2.589931e+003, 1.342244e-002
2.591859e+003, 1.359583e-002
2.593788e+003, 1.360212e-002
2.595716e+003, 1.352284e-002
2.597645e+003, 1.403875e-002
2.599573e+003, 1.434155e-002
2.601501e+003, 1.426096e-002
2.603430e+003, 1.457112e-002
2.605358e+003, 1.511223e-002
2.607287e+003, 1.595914e-002
2.609215e+003, 1.616605e-002
2.611144e+003, 1.631026e-002
2.613072e+003, 1.667397e-002
2.615001e+003, 1.705405e-002
2.616929e+003, 1.706425e-002
2.618858e+003, 1.684800e-002
2.620786e+003, 1.678294e-002
2.622715e+003, 1.676407e-002
2.624643e+003, 1.677331e-002
2.626572e+003, 1.637475e-002
2.628500e+003, 1.613191e-002
2.630428e+003, 1.620934e-002
2.632357e+003, 1.626882e-002
2.634285e+003, 1.600144e-002
2.636214e+003, 1.598774e-002
2.638142e+003, 1.635591e-002
2.640071e+003, 1.632297e-002
2.641999e+003, 1.600418e-002
2.643928e+003, 1.554513e-002
2.645856e+003, 1.560090e-002
2.647785e+003, 1.584993e-002
2.649713e+003, 1.584874e-002
2.651642e+003, 1.561658e-002
2.653570e+003, 1.565699e-002
2.655499e+003, 1.595489e-002
2.657427e+003, 1.585096e-002
2.659355e+003, 1.552983e-002
2.661284e+003, 1.535030e-002
2.663212e+003, 1.532172e-002
2.665141e+003, 1.522982e-002
2.667069e+003, 1.503142e-002
2.668998e+003, 1.478045e-002
2.670926e+003, 1.482411e-002
2.672855e+003, 1.512181e-002
2.674783e+003, 1.507319e-002
2.676712e+003, 1.497041e-002
2.678640e+003, 1.491251e-002
2.680569e+003, 1.526641e-002
2.682497e+003, 1.556129e-002
2.684426e+003, 1.552930e-002
2.686354e+003, 1.553261e-002
2.688282e+003, 1.539004e-002
2.690211e+003, 1.544922e-002
2.692139e+003, 1.556371e-002
2.694068e+003, 1.566957e-002
2.695996e+003, 1.564539e-002
2.697925e+003, 1.554180e-002
2.699853e+003, 1.557285e-002
2.701782e+003, 1.558507e-002
2.703710e+003, 1.558248e-002
2.705639e+003, 1.551792e-002
2.707567e+003, 1.587993e-002
2.709496e+003, 1.623508e-002
2.711424e+003, 1.639084e-002
2.713353e+003, 1.654937e-002
2.715281e+003, 1.672675e-002
2.717209e+003, 1.672721e-002
2.719138e+003, 1.689472e-002
2.721066e+003, 1.723115e-002
2.722995e+003, 1.715191e-002
2.724923e+003, 1.711184e-002
2.726852e+003, 1.734727e-002
2.728780e+003, 1.752654e-002
2.730709e+003, 1.763737e-002
2.732637e+003, 1.760056e-002
2.734566e+003, 1.772252e-002
2.736494e+003, 1.793051e-002
2.738423e+003, 1.804024e-002
2.740351e+003, 1.814809e-002
2.742280e+003, 1.844394e-002
2.744208e+003, 1.866674e-002
2.746136e+003, 1.892833e-002
2.748065e+003, 1.901359e-002
2.749993e+003, 1.905416e-002
2.751922e+003, 1.901768e-002
2.753850e+003, 1.902980e-002
2.755779e+003, 1.907671e-002
2.757707e+003, 1.946956e-002
2.759636e+003, 1.974269e-002
2.761564e+003, 1.979099e-002
2.763493e+003, 1.970978e-002
2.765421e+003, 2.007996e-002
2.767350e+003, 2.038649e-002
2.769278e+003, 2.060529e-002
2.771207e+003, 2.105387e-002
2.773135e+003, 2.141549e-002
2.775063e+003, 2.147634e-002
2.776992e+003, 2.139113e-002
2.778920e+003, 2.125211e-002
2.780849e+003, 2.170131e-002
2.782777e+003, 2.213719e-002
2.784706e+003, 2.218100e-002
2.786634e+003, 2.217755e-002
2.788563e+003, 2.242847e-002
2.790491e+003, 2.260392e-002
2.792420e+003, 2.286127e-002
2.794348e+003, 2.316297e-002
2.796277e+003, 2.325913e-002
2.798205e+003, 2.373316e-002
2.800134e+003, 2.415176e-002
2.802062e+003, 2.430242e-002
2.803990e+003, 2.469349e-002
2.805919e+003, 2.485137e-002
2.807847e+003, 2.499285e-002
2.809776e+003, 2.532459e-002
2.811704e+003, 2.589425e-002
2.813633e+003, 2.629583e-002
2.815561e+003, 2.668842e-002
2.817490e+003, 2.686978e-002
2.819418e+003, 2.701079e-002
2.821347e+003, 2.740633e-002
2.823275e+003, 2.762836e-002
2.825204e+003, 2.786718e-002
2.827132e+003, 2.833523e-002
2.829061e+003, 2.870042e-002
2.830989e+003, 2.884914e-002
2.832917e+003, 2.909646e-002
2.834846e+003, 2.973744e-002
2.836774e+003, 3.033412e-002
2.838703e+003, 3.065690e-002
2.840631e+003, 3.084110e-002
2.842560e+003, 3.125997e-002
2.844488e+003, 3.172853e-002
2.846417e+003, 3.189007e-002
2.848345e+003, 3.213143e-002
2.850274e+003, 3.251157e-002
2.852202e+003, 3.302915e-002
2.854131e+003, 3.358413e-002
2.856059e+003, 3.372584e-002
2.857988e+003, 3.420896e-002
2.859916e+003, 3.514890e-002
2.861844e+003, 3.557797e-002
2.863773e+003, 3.576580e-002
2.865701e+003, 3.602591e-002
2.867630e+003, 3.599509e-002
2.869558e+003, 3.654554e-002
2.871487e+003, 3.733004e-002
2.873415e+003, 3.797261e-002
2.875344e+003, 3.830418e-002
2.877272e+003, 3.885866e-002
2.879201e+003, 3.924190e-002
2.881129e+003, 3.952255e-002
2.883058e+003, 3.987884e-002
2.884986e+003, 4.033526e-002
2.886915e+003, 4.093373e-002
2.888843e+003, 4.164195e-002
2.890771e+003, 4.205370e-002
2.892700e+003, 4.256521e-002
2.894628e+003, 4.353560e-002
2.896557e+003, 4.441081e-002
2.898485e+003, 4.486666e-002
2.900414e+003, 4.532472e-002
2.902342e+003, 4.588901e-002
2.904271e+003, 4.627783e-002
2.906199e+003, 4.665853e-002
2.908128e+003, 4.750685e-002
2.910056e+003, 4.816455e-002
2.911985e+003, 4.881806e-002
2.913913e+003, 4.954300e-002
2.915842e+003, 4.972097e-002
2.917770e+003, 5.008068e-002
2.919698e+003, 5.090950e-002
2.921627e+003, 5.149961e-002
2.923555e+003, 5.201267e-002
2.925484e+003, 5.272883e-002
2.927412e+003, 5.358323e-002
2.929341e+003, 5.414132e-002
2.931269e+003, 5.430082e-002
2.933198e+003, 5.465475e-002
2.935126e+003, 5.530053e-002
2.937055e+003, 5.577365e-002
2.938983e+003, 5.624200e-002
2.940912e+003, 5.681355e-002
2.942840e+003, 5.768405e-002
2.944769e+003, 5.854404e-002
2.946697e+003, 5.936319e-002
2.948625e+003, 6.005840e-002
2.950554e+003, 6.064451e-002
2.952482e+003, 6.145693e-002
2.954411e+003, 6.227247e-002
2.956339e+003, 6.289545e-002
2.958268e+003, 6.361813e-002
2.960196e+003, 6.472529e-002
2.962125e+003, 6.578577e-002
2.964053e+003, 6.672188e-002
2.965982e+003, 6.745356e-002
2.967910e+003, 6.804550e-002
2.969839e+003, 6.892008e-002
2.971767e+003, 6.974162e-002
2.973696e+003, 7.055817e-002
2.975624e+003, 7.132513e-002
2.977552e+003, 7.191152e-002
2.979481e+003, 7.275905e-002
2.981409e+003, 7.350042e-002
2.983338e+003, 7.448814e-002
2.985266e+003, 7.556582e-002
2.987195e+003, 7.624945e-002
2.989123e+003, 7.691623e-002
2.991052e+003, 7.775191e-002
2.992980e+003, 7.870013e-002
2.994909e+003, 7.943778e-002
2.996837e+003, 8.039286e-002
2.998766e+003, 8.129094e-002
3.000694e+003, 8.189988e-002
3.002623e+003, 8.271818e-002
3.004551e+003, 8.364988e-002
3.006479e+003, 8.452984e-002
3.008408e+003, 8.535595e-002
3.010336e+003, 8.606791e-002
3.012265e+003, 8.647583e-002
3.014193e+003, 8.680245e-002
3.016122e+003, 8.776802e-002
3.018050e+003, 8.902305e-002
3.019979e+003, 9.059677e-002
3.021907e+003, 9.178679e-002
3.023836e+003, 9.303990e-002
3.025764e+003, 9.428451e-002
3.027693e+003, 9.515775e-002
3.029621e+003, 9.613025e-002
3.031550e+003, 9.761884e-002
3.033478e+003, 9.918708e-002
3.035406e+003, 1.001267e-001
3.037335e+003, 1.013682e-001
3.039263e+003, 1.028780e-001
3.041192e+003, 1.047425e-001
3.043120e+003, 1.065933e-001
3.045049e+003, 1.082032e-001
3.046977e+003, 1.095804e-001
3.048906e+003, 1.111092e-001
3.050834e+003, 1.130911e-001
3.052763e+003, 1.145943e-001
3.054691e+003, 1.161130e-001
3.056620e+003, 1.176872e-001
3.058548e+003, 1.196481e-001
3.060477e+003, 1.222251e-001
3.062405e+003, 1.242091e-001
3.064333e+003, 1.259991e-001
3.066262e+003, 1.279533e-001
3.068190e+003, 1.296891e-001
3.070119e+003, 1.318500e-001
3.072047e+003, 1.343016e-001
3.073976e+003, 1.365259e-001
3.075904e+003, 1.384499e-001
3.077833e+003, 1.404037e-001
3.079761e+003, 1.430281e-001
3.081690e+003, 1.452603e-001
3.083618e+003, 1.470380e-001
3.085547e+003, 1.492073e-001
3.087475e+003, 1.517712e-001
3.089404e+003, 1.539628e-001
3.091332e+003, 1.560563e-001
3.093260e+003, 1.583894e-001
3.095189e+003, 1.605192e-001
3.097117e+003, 1.624048e-001
3.099046e+003, 1.643741e-001
3.100974e+003, 1.667568e-001
3.102903e+003, 1.687885e-001
3.104831e+003, 1.701836e-001
3.106760e+003, 1.716756e-001
3.108688e+003, 1.737257e-001
3.110617e+003, 1.760823e-001
3.112545e+003, 1.776792e-001
3.114474e+003, 1.781198e-001
3.116402e+003, 1.791432e-001
3.118331e+003, 1.807558e-001
3.120259e+003, 1.819700e-001
3.122188e+003, 1.828894e-001
3.124116e+003, 1.836342e-001
3.126044e+003, 1.840019e-001
3.127973e+003, 1.846765e-001
3.129901e+003, 1.854442e-001
3.131830e+003, 1.856335e-001
3.133758e+003, 1.858629e-001
3.135687e+003, 1.863347e-001
3.137615e+003, 1.866288e-001
3.139544e+003, 1.871523e-001
3.141472e+003, 1.873355e-001
3.143401e+003, 1.874909e-001
3.145329e+003, 1.874679e-001
3.147258e+003, 1.874626e-001
3.149186e+003, 1.874760e-001
3.151115e+003, 1.874030e-001
3.153043e+003, 1.874264e-001
3.154971e+003, 1.878972e-001
3.156900e+003, 1.880358e-001
3.158828e+003, 1.881969e-001
3.160757e+003, 1.883920e-001
3.162685e+003, 1.885226e-001
3.164614e+003, 1.884057e-001
3.166542e+003, 1.888479e-001
3.168471e+003, 1.895266e-001
3.170399e+003, 1.899544e-001
3.172328e+003, 1.905652e-001
3.174256e+003, 1.908786e-001
3.176185e+003, 1.911720e-001
3.178113e+003, 1.917876e-001
3.180042e+003, 1.926867e-001
3.181970e+003, 1.934815e-001
3.183898e+003, 1.941637e-001
3.185827e+003, 1.946552e-001
3.187755e+003, 1.951287e-001
3.189684e+003, 1.962239e-001
3.191612e+003, 1.971581e-001
3.193541e+003, 1.982939e-001
3.195469e+003, 1.991311e-001
3.197398e+003, 1.999439e-001
3.199326e+003, 2.008302e-001
3.201255e+003, 2.016365e-001
3.203183e+003, 2.035312e-001
3.205112e+003, 2.051801e-001
3.207040e+003, 2.065069e-001
3.208969e+003, 2.080073e-001
3.210897e+003, 2.084316e-001
3.212825e+003, 2.090600e-001
3.214754e+003, 2.103297e-001
3.216682e+003, 2.119567e-001
3.218611e+003, 2.134931e-001
3.220539e+003, 2.142420e-001
3.222468e+003, 2.152820e-001
3.224396e+003, 2.170793e-001
3.226325e+003, 2.186757e-001
3.228253e+003, 2.195490e-001
3.230182e+003, 2.206018e-001
3.232110e+003, 2.216316e-001
3.234039e+003, 2.225914e-001
3.235967e+003, 2.240410e-001
3.237896e+003, 2.246161e-001
3.239824e+003, 2.250112e-001
3.241752e+003, 2.256299e-001
3.243681e+003, 2.266215e-001
3.245609e+003, 2.274796e-001
3.247538e+003, 2.278515e-001
3.249466e+003, 2.277761e-001
3.251395e+003, 2.280705e-001
3.253323e+003, 2.283151e-001
3.255252e+003, 2.284216e-001
3.257180e+003, 2.282694e-001
3.259109e+003, 2.280843e-001
3.261037e+003, 2.283182e-001
3.262966e+003, 2.286934e-001
3.264894e+003, 2.285706e-001
3.266823e+003, 2.281271e-001
3.268751e+003, 2.277591e-001
3.270679e+003, 2.274124e-001
3.272608e+003, 2.268265e-001
3.274536e+003, 2.261845e-001
3.276465e+003, 2.254375e-001
3.278393e+003, 2.245188e-001
3.280322e+003, 2.237989e-001
3.282250e+003, 2.233583e-001
3.284179e+003, 2.230165e-001
3.286107e+003, 2.228089e-001
3.288036e+003, 2.226872e-001
3.289964e+003, 2.216363e-001
3.291893e+003, 2.205971e-001
3.293821e+003, 2.203369e-001
3.295750e+003, 2.200927e-001
3.297678e+003, 2.192663e-001
3.299606e+003, 2.183949e-001
3.301535e+003, 2.181078e-001
3.303463e+003, 2.175987e-001
3.305392e+003, 2.168760e-001
3.307320e+003, 2.165124e-001
3.309249e+003, 2.158501e-001
3.311177e+003, 2.154229e-001
3.313106e+003, 2.150128e-001
3.315034e+003, 2.139012e-001
3.316963e+003, 2.135334e-001
3.318891e+003, 2.132544e-001
3.320820e+003, 2.124508e-001
3.322748e+003, 2.114665e-001
3.324677e+003, 2.107818e-001
3.326605e+003, 2.102895e-001
3.328533e+003, 2.098035e-001
3.330462e+003, 2.088800e-001
3.332390e+003, 2.077583e-001
3.334319e+003, 2.065007e-001
3.336247e+003, 2.057928e-001
3.338176e+003, 2.052922e-001
3.340104e+003, 2.045362e-001
3.342033e+003, 2.036515e-001
3.343961e+003, 2.028869e-001
3.345890e+003, 2.016678e-001
3.347818e+003, 2.005780e-001
3.349747e+003, 1.995023e-001
3.351675e+003, 1.982993e-001
3.353604e+003, 1.972533e-001
3.355532e+003, 1.962568e-001
3.357460e+003, 1.949970e-001
3.359389e+003, 1.941128e-001
3.361317e+003, 1.930152e-001
3.363246e+003, 1.915814e-001
3.365174e+003, 1.902581e-001
3.367103e+003, 1.890588e-001
3.369031e+003, 1.872252e-001
3.370960e+003, 1.855747e-001
3.372888e+003, 1.847701e-001
3.374817e+003, 1.835507e-001
3.376745e+003, 1.817646e-001
3.378674e+003, 1.801569e-001
3.380602e+003, 1.790937e-001
3.382531e+003, 1.780872e-001
3.384459e+003, 1.768386e-001
3.386387e+003, 1.755819e-001
3.388316e+003, 1.744390e-001
3.390244e+003, 1.733429e-001
3.392173e+003, 1.722145e-001
3.394101e+003, 1.704295e-001
3.396030e+003, 1.683486e-001
3.397958e+003, 1.668935e-001
3.399887e+003, 1.655728e-001
3.401815e+003, 1.645159e-001
3.403744e+003, 1.637095e-001
3.405672e+003, 1.630201e-001
3.407601e+003, 1.617506e-001
3.409529e+003, 1.602456e-001
3.411458e+003, 1.592799e-001
3.413386e+003, 1.584806e-001
3.415314e+003, 1.577250e-001
3.417243e+003, 1.569547e-001
3.419171e+003, 1.558184e-001
3.421100e+003, 1.548088e-001
3.423028e+003, 1.542727e-001
3.424957e+003, 1.542201e-001
3.426885e+003, 1.536708e-001
3.428814e+003, 1.532532e-001
3.430742e+003, 1.527533e-001
3.432671e+003, 1.524055e-001
3.434599e+003, 1.522806e-001
3.436528e+003, 1.518510e-001
3.438456e+003, 1.510494e-001
3.440385e+003, 1.509291e-001
3.442313e+003, 1.506976e-001
3.444241e+003, 1.501397e-001
3.446170e+003, 1.493436e-001
3.448098e+003, 1.494178e-001
3.450027e+003, 1.491738e-001
3.451955e+003, 1.480306e-001
3.453884e+003, 1.467479e-001
3.455812e+003, 1.457598e-001
3.457741e+003, 1.447475e-001
3.459669e+003, 1.431904e-001
3.461598e+003, 1.417947e-001
3.463526e+003, 1.408174e-001
3.465455e+003, 1.393526e-001
3.467383e+003, 1.371057e-001
3.469312e+003, 1.345585e-001
3.471240e+003, 1.322652e-001
3.473168e+003, 1.307040e-001
3.475097e+003, 1.294663e-001
3.477025e+003, 1.278233e-001
3.478954e+003, 1.259093e-001
3.480882e+003, 1.237499e-001
3.482811e+003, 1.217925e-001
3.484739e+003, 1.199029e-001
3.486668e+003, 1.174545e-001
3.488596e+003, 1.148477e-001
3.490525e+003, 1.127523e-001
3.492453e+003, 1.113115e-001
3.494382e+003, 1.100599e-001
3.496310e+003, 1.083351e-001
3.498239e+003, 1.063982e-001
3.500167e+003, 1.047653e-001
3.502095e+003, 1.028339e-001
3.504024e+003, 1.011618e-001
3.505952e+003, 9.967900e-002
3.507881e+003, 9.766683e-002
3.509809e+003, 9.550488e-002
3.511738e+003, 9.363443e-002
3.513666e+003, 9.274804e-002
3.515595e+003, 9.221416e-002
3.517523e+003, 9.110624e-002
3.519452e+003, 9.046603e-002
3.521380e+003, 9.036420e-002
3.523309e+003, 9.042694e-002
3.525237e+003, 9.049106e-002
3.527166e+003, 9.079748e-002
3.529094e+003, 9.181731e-002
3.531022e+003, 9.334655e-002
3.532951e+003, 9.516502e-002
3.534879e+003, 9.795667e-002
3.536808e+003, 1.010715e-001
3.538736e+003, 1.040532e-001
3.540665e+003, 1.075517e-001
3.542593e+003, 1.109615e-001
3.544522e+003, 1.148877e-001
3.546450e+003, 1.193288e-001
3.548379e+003, 1.241584e-001
3.550307e+003, 1.286604e-001
3.552236e+003, 1.321969e-001
3.554164e+003, 1.354075e-001
3.556093e+003, 1.370298e-001
3.558021e+003, 1.351676e-001
3.559949e+003, 1.313945e-001
3.561878e+003, 1.252323e-001
3.563806e+003, 1.166585e-001
3.565735e+003, 1.068347e-001
3.567663e+003, 9.665582e-002
3.569592e+003, 8.679591e-002
3.571520e+003, 7.710620e-002
3.573449e+003, 6.882207e-002
3.575377e+003, 6.298874e-002
3.577306e+003, 5.749711e-002
3.579234e+003, 5.295728e-002
3.581163e+003, 4.901361e-002
3.583091e+003, 4.543551e-002
3.585020e+003, 4.257805e-002
3.586948e+003, 4.008765e-002
3.588876e+003, 3.764464e-002
3.590805e+003, 3.564433e-002
3.592733e+003, 3.430618e-002
3.594662e+003, 3.251760e-002
3.596590e+003, 2.956638e-002
3.598519e+003, 2.748270e-002
3.600447e+003, 2.686135e-002
3.602376e+003, 2.581237e-002
3.604304e+003, 2.365370e-002
3.606233e+003, 2.265618e-002
3.608161e+003, 2.196676e-002
3.610090e+003, 2.097248e-002
3.612018e+003, 1.974020e-002
3.613947e+003, 1.844482e-002
3.615875e+003, 1.787567e-002
3.617803e+003, 1.775876e-002
3.619732e+003, 1.650515e-002
3.621660e+003, 1.497836e-002
3.623589e+003, 1.412233e-002
3.625517e+003, 1.313356e-002
3.627446e+003, 1.274222e-002
3.629374e+003, 1.235334e-002
3.631303e+003, 1.172835e-002
3.633231e+003, 1.082668e-002
3.635160e+003, 9.548872e-003
3.637088e+003, 9.079466e-003
3.639017e+003, 8.522655e-003
3.640945e+003, 7.809167e-003
3.642874e+003, 7.809300e-003
3.644802e+003, 7.557133e-003
3.646730e+003, 7.204715e-003
3.648659e+003, 7.474028e-003
3.650587e+003, 7.240768e-003
3.652516e+003, 5.582782e-003
3.654444e+003, 4.741801e-003
3.656373e+003, 4.732517e-003
3.658301e+003, 4.352945e-003
3.660230e+003, 3.984856e-003
3.662158e+003, 3.902778e-003
3.664087e+003, 3.437923e-003
3.666015e+003, 3.460305e-003
3.667944e+003, 3.191634e-003
3.669872e+003, 3.175523e-003
3.671801e+003, 2.593500e-003
3.673729e+003, 2.472090e-003
3.675657e+003, 2.784218e-003
3.677586e+003, 2.099205e-003
3.679514e+003, 7.609443e-004
3.681443e+003, 8.670326e-004
3.683371e+003, 1.387398e-003
3.685300e+003, 9.788797e-004
3.687228e+003, 1.066557e-003
3.689157e+003, 1.117144e-003
3.691085e+003, 6.590909e-004
3.693014e+003, 4.607684e-004
3.694942e+003, 1.165560e-004
3.696871e+003, 4.838517e-005
3.698799e+003, 4.410176e-004
3.700728e+003, 1.118071e-003
3.702656e+003, 8.685915e-004
3.704584e+003, 4.026633e-004
3.706513e+003, 1.317824e-004
3.708441e+003, 2.676454e-004
3.710370e+003, 6.690529e-004
3.712298e+003, 6.126735e-004
3.714227e+003, 3.708445e-004
3.716155e+003, 6.379458e-004
3.718084e+003, 5.982232e-004
3.720012e+003, 3.603263e-004
3.721941e+003, 4.059067e-004
3.723869e+003, 5.271945e-004
3.725798e+003, 4.859750e-004
3.727726e+003, -2.929502e-004
3.729655e+003, -1.922768e-004
3.731583e+003, -1.298240e-005
3.733511e+003, 2.725479e-004
3.735440e+003, 7.344949e-004
3.737368e+003, 3.377308e-004
3.739297e+003, -1.912873e-004
3.741225e+003, -1.669681e-004
3.743154e+003, 1.260963e-003
3.745082e+003, 1.237521e-003
3.747011e+003, 5.523290e-004
3.748939e+003, 6.045546e-004
3.750868e+003, 5.480489e-004
3.752796e+003, 5.749497e-004
3.754725e+003, 9.940598e-005
3.756653e+003, 2.053935e-004
3.758582e+003, 1.047390e-004
3.760510e+003, 2.479746e-004
3.762438e+003, 5.438783e-004
3.764367e+003, 1.297319e-003
3.766295e+003, 1.054712e-003
3.768224e+003, 3.787335e-004
3.770152e+003, 5.523661e-004
3.772081e+003, 4.447544e-004
3.774009e+003, -6.337467e-004
3.775938e+003, -7.324927e-004
3.777866e+003, 5.582943e-005
3.779795e+003, 5.222586e-005
3.781723e+003, 3.796748e-005
3.783652e+003, 7.477375e-004
3.785580e+003, 4.299102e-004
3.787509e+003, -4.214853e-004
3.789437e+003, -8.555902e-004
3.791365e+003, -6.927921e-004
3.793294e+003, -4.122023e-004
3.795222e+003, -9.192146e-005
3.797151e+003, 4.253094e-004
3.799079e+003, 3.259325e-004
3.801008e+003, -1.269454e-004
3.802936e+003, -6.980553e-004
3.804865e+003, -6.876977e-004
3.806793e+003, -3.576786e-004
3.808722e+003, -4.076156e-005
3.810650e+003, -3.131007e-004
3.812579e+003, 5.179380e-006
3.814507e+003, 8.305907e-004
3.816436e+003, 5.672429e-004
3.818364e+003, -7.692106e-005
3.820292e+003, -2.792158e-004
3.822221e+003, -2.915126e-004
3.824149e+003, -3.115495e-004
3.826078e+003, -1.546564e-004
3.828006e+003, -1.904987e-004
3.829935e+003, -2.994841e-005
3.831863e+003, -7.617905e-007
3.833792e+003, 5.895189e-004
3.835720e+003, 7.343776e-004
3.837649e+003, -5.188462e-004
3.839577e+003, -8.147767e-004
3.841506e+003, 3.815156e-004
3.843434e+003, 7.857978e-004
3.845363e+003, 5.652971e-004
3.847291e+003, 5.835609e-004
3.849219e+003, 6.494332e-004
3.851148e+003, 1.024081e-003
3.853076e+003, 1.500644e-003
3.855005e+003, 5.004006e-004
3.856933e+003, -5.220922e-004
3.858862e+003, -9.103362e-005
3.860790e+003, 6.191615e-005
3.862719e+003, -8.395157e-004
3.864647e+003, 7.785704e-005
3.866576e+003, 7.167017e-004
3.868504e+003, 2.990686e-004
3.870433e+003, -6.264789e-004
3.872361e+003, -5.711256e-004
3.874290e+003, 6.435178e-004
3.876218e+003, 7.894167e-004
3.878146e+003, 5.622755e-004
3.880075e+003, 6.030663e-004
3.882003e+003, 4.943840e-004
3.883932e+003, 4.627053e-004
3.885860e+003, 4.992541e-004
3.887789e+003, 4.828795e-004
3.889717e+003, 6.843734e-004
3.891646e+003, 2.528819e-004
3.893574e+003, -2.031783e-004
3.895503e+003, 7.002409e-004
3.897431e+003, 1.243794e-003
3.899360e+003, 6.085194e-004
3.901288e+003, 1.782664e-004
3.903217e+003, 3.267174e-004
3.905145e+003, 6.521379e-004
3.907073e+003, 6.998601e-004
3.909002e+003, 2.455896e-004
3.910930e+003, -8.034075e-005
3.912859e+003, 2.257336e-004
3.914787e+003, 7.444546e-004
3.916716e+003, 8.393427e-004
3.918644e+003, 5.768493e-004
3.920573e+003, 4.787651e-004
3.922501e+003, 1.041494e-003
3.924430e+003, 1.587002e-003
3.926358e+003, 1.288178e-003
3.928287e+003, 1.362669e-003
3.930215e+003, 9.213223e-004
3.932144e+003, 7.203829e-004
3.934072e+003, 8.583208e-004
3.936000e+003, 5.077833e-004
3.937929e+003, 8.164746e-004
3.939857e+003, 1.145510e-003
3.941786e+003, 7.476288e-004
3.943714e+003, 8.218576e-004
3.945643e+003, 7.249487e-004
3.947571e+003, 6.990015e-004
3.949500e+003, 1.161540e-003
3.951428e+003, 1.129091e-003
3.953357e+003, 5.675454e-004
3.955285e+003, 5.536638e-004
3.957214e+003, 7.136949e-004
3.959142e+003, 7.374031e-004
3.961071e+003, 1.127512e-003
3.962999e+003, 1.934498e-003
3.964927e+003, 1.545390e-003
3.966856e+003, 1.225306e-003
3.968784e+003, 1.006546e-003
3.970713e+003, 9.119918e-004
3.972641e+003, 4.224513e-004
3.974570e+003, 2.374598e-004
3.976498e+003, 5.074725e-004
3.978427e+003, 2.218696e-004
3.980355e+003, 2.987459e-004
3.982284e+003, 4.295478e-004
3.984212e+003, 8.902609e-004
3.986141e+003, 1.147865e-003
3.988069e+003, 1.208056e-003
3.989998e+003, 1.255210e-003
3.991926e+003, 1.249463e-003
3.993854e+003, 1.291120e-003
3.995783e+003, 7.663474e-004
3.997711e+003, 5.227672e-004
3.999640e+003, 1.052429e-003
##END=



