##NAMES=Quartz
##RRUFFID=R040031
##IDEAL CHEMISTRY=SiO_2_
##LOCALITY=Spruce Claim, King County, Washington, USA
##OWNER=RRUFF
##SOURCE=Bob Downs
##DESCRIPTION=Colorless hexagonal prism
##STATUS=The identification of this mineral has been confirmed by X-ray diffraction and chemical analysis
##URL=rruff.info/R040031
##MEASURED CHEMISTRY=Si_1.00_O_2_
3.991926e+002, 0.000000e+000
4.011211e+002, 5.829698e-002
4.030496e+002, 5.860032e-002
4.049780e+002, 4.354292e-002
4.069065e+002, 4.480486e-002
4.088350e+002, 4.665312e-002
4.107634e+002, 5.519825e-002
4.126919e+002, 6.926498e-002
4.146204e+002, 7.984093e-002
4.165488e+002, 8.586290e-002
4.184773e+002, 9.655032e-002
4.204058e+002, 1.063085e-001
4.223342e+002, 1.133016e-001
4.242627e+002, 1.208343e-001
4.261912e+002, 1.327602e-001
4.281196e+002, 1.435767e-001
4.300481e+002, 1.530931e-001
4.319766e+002, 1.609015e-001
4.339050e+002, 1.689890e-001
4.358335e+002, 1.773404e-001
4.377620e+002, 1.857057e-001
4.396904e+002, 1.922567e-001
4.416189e+002, 2.000781e-001
4.435474e+002, 2.072466e-001
4.454758e+002, 2.130836e-001
4.474043e+002, 2.207903e-001
4.493328e+002, 2.295189e-001
4.512612e+002, 2.344386e-001
4.531897e+002, 2.377681e-001
4.551182e+002, 2.373081e-001
4.570466e+002, 2.350792e-001
4.589751e+002, 2.290933e-001
4.609036e+002, 2.212451e-001
4.628320e+002, 2.127433e-001
4.647605e+002, 2.055924e-001
4.666890e+002, 1.963575e-001
4.686174e+002, 1.889585e-001
4.705459e+002, 1.812408e-001
4.724744e+002, 1.737196e-001
4.744028e+002, 1.650299e-001
4.763313e+002, 1.584035e-001
4.782598e+002, 1.524652e-001
4.801882e+002, 1.461632e-001
4.821167e+002, 1.386189e-001
4.840452e+002, 1.327426e-001
4.859736e+002, 1.273508e-001
4.879021e+002, 1.218577e-001
4.898306e+002, 1.159018e-001
4.917590e+002, 1.108986e-001
4.936875e+002, 1.055748e-001
4.956160e+002, 9.856308e-002
4.975444e+002, 9.143484e-002
4.994729e+002, 8.450121e-002
5.014014e+002, 7.738323e-002
5.033298e+002, 7.116021e-002
5.052583e+002, 6.726079e-002
5.071868e+002, 6.581265e-002
5.091152e+002, 6.622630e-002
5.110437e+002, 6.777838e-002
5.129722e+002, 6.939889e-002
5.149006e+002, 7.081192e-002
5.168291e+002, 7.094649e-002
5.187576e+002, 6.950162e-002
5.206860e+002, 6.771228e-002
5.226145e+002, 6.512250e-002
5.245430e+002, 6.219998e-002
5.264714e+002, 5.844838e-002
5.283999e+002, 5.407572e-002
5.303284e+002, 5.007410e-002
5.322568e+002, 4.577010e-002
5.341853e+002, 4.019163e-002
5.361138e+002, 3.468985e-002
5.380422e+002, 2.998029e-002
5.399707e+002, 2.502312e-002
5.418992e+002, 2.049395e-002
5.438276e+002, 1.643978e-002
5.457561e+002, 1.357967e-002
5.476846e+002, 1.119517e-002
5.496130e+002, 9.044453e-003
5.515415e+002, 7.319480e-003
5.534700e+002, 5.928441e-003
5.553984e+002, 4.764540e-003
5.573269e+002, 4.348168e-003
5.592554e+002, 4.119608e-003
5.611838e+002, 4.623866e-003
5.631123e+002, 4.502277e-003
5.650408e+002, 4.161190e-003
5.669692e+002, 4.214021e-003
5.688977e+002, 4.220524e-003
5.708262e+002, 3.877452e-003
5.727546e+002, 3.715108e-003
5.746831e+002, 3.774701e-003
5.766116e+002, 3.707809e-003
5.785400e+002, 3.402458e-003
5.804685e+002, 3.492875e-003
5.823970e+002, 3.866083e-003
5.843254e+002, 4.205021e-003
5.862539e+002, 4.396601e-003
5.881824e+002, 4.612276e-003
5.901108e+002, 4.648554e-003
5.920393e+002, 4.879395e-003
5.939678e+002, 5.024076e-003
5.958962e+002, 5.300205e-003
5.978247e+002, 5.344644e-003
5.997532e+002, 5.288415e-003
6.016816e+002, 5.562329e-003
6.036101e+002, 6.115469e-003
6.055386e+002, 6.330422e-003
6.074670e+002, 6.182128e-003
6.093955e+002, 6.488436e-003
6.113240e+002, 6.919343e-003
6.132524e+002, 7.060716e-003
6.151809e+002, 7.130243e-003
6.171094e+002, 7.516723e-003
6.190378e+002, 7.898013e-003
6.209663e+002, 8.308625e-003
6.228948e+002, 8.367352e-003
6.248232e+002, 8.481162e-003
6.267517e+002, 8.410153e-003
6.286802e+002, 8.925468e-003
6.306086e+002, 9.162471e-003
6.325371e+002, 9.123179e-003
6.344656e+002, 9.624904e-003
6.363940e+002, 9.948415e-003
6.383225e+002, 1.012799e-002
6.402510e+002, 1.049921e-002
6.421794e+002, 1.099425e-002
6.441079e+002, 1.158124e-002
6.460364e+002, 1.170178e-002
6.479648e+002, 1.214954e-002
6.498933e+002, 1.263771e-002
6.518218e+002, 1.300518e-002
6.537502e+002, 1.361513e-002
6.556787e+002, 1.392813e-002
6.576072e+002, 1.419920e-002
6.595356e+002, 1.467028e-002
6.614641e+002, 1.518106e-002
6.633926e+002, 1.591648e-002
6.653210e+002, 1.653042e-002
6.672495e+002, 1.724425e-002
6.691780e+002, 1.802994e-002
6.711064e+002, 1.856824e-002
6.730349e+002, 1.927825e-002
6.749634e+002, 2.045525e-002
6.768918e+002, 2.212936e-002
6.788203e+002, 2.396185e-002
6.807488e+002, 2.589091e-002
6.826772e+002, 2.840940e-002
6.846057e+002, 3.157238e-002
6.865342e+002, 3.587292e-002
6.884626e+002, 4.175768e-002
6.903911e+002, 4.992066e-002
6.923196e+002, 5.936572e-002
6.942480e+002, 6.518810e-002
6.961765e+002, 6.135915e-002
6.981050e+002, 4.971223e-002
7.000334e+002, 3.804591e-002
7.019619e+002, 3.056475e-002
7.038904e+002, 2.661880e-002
7.058188e+002, 2.471757e-002
7.077473e+002, 2.358030e-002
7.096758e+002, 2.320704e-002
7.116042e+002, 2.320636e-002
7.135327e+002, 2.379351e-002
7.154612e+002, 2.429545e-002
7.173896e+002, 2.465666e-002
7.193181e+002, 2.491730e-002
7.212466e+002, 2.559290e-002
7.231750e+002, 2.667564e-002
7.251035e+002, 2.787677e-002
7.270320e+002, 2.876848e-002
7.289604e+002, 3.011269e-002
7.308889e+002, 3.135202e-002
7.328174e+002, 3.251929e-002
7.347458e+002, 3.412561e-002
7.366743e+002, 3.578576e-002
7.386028e+002, 3.745509e-002
7.405313e+002, 3.929092e-002
7.424597e+002, 4.122495e-002
7.443882e+002, 4.349306e-002
7.463167e+002, 4.583570e-002
7.482451e+002, 4.862405e-002
7.501736e+002, 5.197293e-002
7.521021e+002, 5.591318e-002
7.540305e+002, 5.971714e-002
7.559590e+002, 6.392060e-002
7.578875e+002, 6.911755e-002
7.598159e+002, 7.532118e-002
7.617444e+002, 8.196425e-002
7.636729e+002, 8.956608e-002
7.656013e+002, 9.845868e-002
7.675298e+002, 1.083025e-001
7.694583e+002, 1.192424e-001
7.713867e+002, 1.312566e-001
7.733152e+002, 1.436749e-001
7.752437e+002, 1.543533e-001
7.771721e+002, 1.593770e-001
7.791006e+002, 1.568355e-001
7.810291e+002, 1.483975e-001
7.829575e+002, 1.380031e-001
7.848860e+002, 1.289041e-001
7.868145e+002, 1.241462e-001
7.887429e+002, 1.243878e-001
7.906714e+002, 1.284617e-001
7.925999e+002, 1.342877e-001
7.945283e+002, 1.399837e-001
7.964568e+002, 1.416747e-001
7.983853e+002, 1.358860e-001
8.003137e+002, 1.224151e-001
8.022422e+002, 1.045635e-001
8.041707e+002, 8.519838e-002
8.060991e+002, 6.684186e-002
8.080276e+002, 5.124759e-002
8.099561e+002, 3.972971e-002
8.118845e+002, 3.163417e-002
8.138130e+002, 2.610450e-002
8.157415e+002, 2.226205e-002
8.176699e+002, 1.984177e-002
8.195984e+002, 1.815187e-002
8.215269e+002, 1.688200e-002
8.234553e+002, 1.595611e-002
8.253838e+002, 1.539166e-002
8.273123e+002, 1.484385e-002
8.292407e+002, 1.453887e-002
8.311692e+002, 1.421388e-002
8.330977e+002, 1.409937e-002
8.350261e+002, 1.409973e-002
8.369546e+002, 1.446951e-002
8.388831e+002, 1.485518e-002
8.408115e+002, 1.527617e-002
8.427400e+002, 1.521141e-002
8.446685e+002, 1.560264e-002
8.465969e+002, 1.629256e-002
8.485254e+002, 1.674642e-002
8.504539e+002, 1.692041e-002
8.523823e+002, 1.734482e-002
8.543108e+002, 1.776300e-002
8.562393e+002, 1.852878e-002
8.581677e+002, 1.933551e-002
8.600962e+002, 2.003927e-002
8.620247e+002, 2.056636e-002
8.639531e+002, 2.121568e-002
8.658816e+002, 2.185770e-002
8.678101e+002, 2.284740e-002
8.697385e+002, 2.370142e-002
8.716670e+002, 2.427917e-002
8.735955e+002, 2.506300e-002
8.755239e+002, 2.612411e-002
8.774524e+002, 2.686271e-002
8.793809e+002, 2.768637e-002
8.813093e+002, 2.843014e-002
8.832378e+002, 2.944279e-002
8.851663e+002, 3.064207e-002
8.870947e+002, 3.186389e-002
8.890232e+002, 3.281052e-002
8.909517e+002, 3.387664e-002
8.928801e+002, 3.478922e-002
8.948085e+002, 3.591944e-002
8.967370e+002, 3.699729e-002
8.986655e+002, 3.828140e-002
9.005939e+002, 3.981566e-002
9.025224e+002, 4.133413e-002
9.044509e+002, 4.250722e-002
9.063793e+002, 4.386257e-002
9.083078e+002, 4.539606e-002
9.102363e+002, 4.678974e-002
9.121647e+002, 4.827616e-002
9.140932e+002, 4.992292e-002
9.160217e+002, 5.149158e-002
9.179501e+002, 5.322111e-002
9.198786e+002, 5.483138e-002
9.218071e+002, 5.641657e-002
9.237355e+002, 5.809577e-002
9.256640e+002, 6.028623e-002
9.275925e+002, 6.256324e-002
9.295209e+002, 6.462997e-002
9.314494e+002, 6.648614e-002
9.333779e+002, 6.846253e-002
9.353063e+002, 7.051508e-002
9.372348e+002, 7.282821e-002
9.391633e+002, 7.476886e-002
9.410917e+002, 7.697961e-002
9.430202e+002, 7.942913e-002
9.449487e+002, 8.173930e-002
9.468771e+002, 8.380089e-002
9.488056e+002, 8.603784e-002
9.507341e+002, 8.821642e-002
9.526625e+002, 9.063818e-002
9.545910e+002, 9.298839e-002
9.565195e+002, 9.558835e-002
9.584479e+002, 9.822677e-002
9.603764e+002, 1.007211e-001
9.623049e+002, 1.033942e-001
9.642333e+002, 1.064350e-001
9.661618e+002, 1.094823e-001
9.680903e+002, 1.126568e-001
9.700187e+002, 1.156581e-001
9.719472e+002, 1.187373e-001
9.738757e+002, 1.220925e-001
9.758041e+002, 1.256912e-001
9.777326e+002, 1.291422e-001
9.796611e+002, 1.326096e-001
9.815895e+002, 1.361550e-001
9.835180e+002, 1.398070e-001
9.854465e+002, 1.433117e-001
9.873749e+002, 1.467172e-001
9.893034e+002, 1.501272e-001
9.912319e+002, 1.539047e-001
9.931603e+002, 1.574946e-001
9.950888e+002, 1.609926e-001
9.970173e+002, 1.644858e-001
9.989457e+002, 1.679339e-001
1.000874e+003, 1.712588e-001
1.002803e+003, 1.751067e-001
1.004731e+003, 1.787886e-001
1.006660e+003, 1.827726e-001
1.008588e+003, 1.867102e-001
1.010517e+003, 1.906964e-001
1.012445e+003, 1.946836e-001
1.014373e+003, 1.987546e-001
1.016302e+003, 2.028261e-001
1.018230e+003, 2.069511e-001
1.020159e+003, 2.109137e-001
1.022087e+003, 2.149502e-001
1.024016e+003, 2.189797e-001
1.025944e+003, 2.232730e-001
1.027873e+003, 2.274428e-001
1.029801e+003, 2.316705e-001
1.031730e+003, 2.357578e-001
1.033658e+003, 2.402034e-001
1.035587e+003, 2.446257e-001
1.037515e+003, 2.486747e-001
1.039444e+003, 2.523387e-001
1.041372e+003, 2.558159e-001
1.043301e+003, 2.593287e-001
1.045229e+003, 2.633027e-001
1.047157e+003, 2.676091e-001
1.049086e+003, 2.720819e-001
1.051014e+003, 2.761494e-001
1.052943e+003, 2.793548e-001
1.054871e+003, 2.821172e-001
1.056800e+003, 2.842503e-001
1.058728e+003, 2.846344e-001
1.060657e+003, 2.835509e-001
1.062585e+003, 2.809386e-001
1.064514e+003, 2.772762e-001
1.066442e+003, 2.738348e-001
1.068371e+003, 2.722712e-001
1.070299e+003, 2.722917e-001
1.072228e+003, 2.735359e-001
1.074156e+003, 2.753132e-001
1.076084e+003, 2.768162e-001
1.078013e+003, 2.773041e-001
1.079941e+003, 2.769222e-001
1.081870e+003, 2.754136e-001
1.083798e+003, 2.729232e-001
1.085727e+003, 2.693922e-001
1.087655e+003, 2.652241e-001
1.089584e+003, 2.605202e-001
1.091512e+003, 2.553949e-001
1.093441e+003, 2.495020e-001
1.095369e+003, 2.436005e-001
1.097298e+003, 2.374783e-001
1.099226e+003, 2.313580e-001
1.101155e+003, 2.254620e-001
1.103083e+003, 2.200207e-001
1.105011e+003, 2.146947e-001
1.106940e+003, 2.094240e-001
1.108868e+003, 2.043407e-001
1.110797e+003, 1.995192e-001
1.112725e+003, 1.946838e-001
1.114654e+003, 1.901895e-001
1.116582e+003, 1.854908e-001
1.118511e+003, 1.808916e-001
1.120439e+003, 1.765362e-001
1.122368e+003, 1.720975e-001
1.124296e+003, 1.674834e-001
1.126225e+003, 1.628240e-001
1.128153e+003, 1.581534e-001
1.130082e+003, 1.537230e-001
1.132010e+003, 1.493555e-001
1.133938e+003, 1.452038e-001
1.135867e+003, 1.409948e-001
1.137795e+003, 1.369278e-001
1.139724e+003, 1.331261e-001
1.141652e+003, 1.296373e-001
1.143581e+003, 1.256275e-001
1.145509e+003, 1.215879e-001
1.147438e+003, 1.177205e-001
1.149366e+003, 1.138262e-001
1.151295e+003, 1.097595e-001
1.153223e+003, 1.060836e-001
1.155152e+003, 1.038979e-001
1.157080e+003, 1.049590e-001
1.159009e+003, 1.096275e-001
1.160937e+003, 1.155023e-001
1.162865e+003, 1.181188e-001
1.164794e+003, 1.159932e-001
1.166722e+003, 1.112198e-001
1.168651e+003, 1.060190e-001
1.170579e+003, 1.006802e-001
1.172508e+003, 9.550285e-002
1.174436e+003, 9.054914e-002
1.176365e+003, 8.608473e-002
1.178293e+003, 8.201642e-002
1.180222e+003, 7.813702e-002
1.182150e+003, 7.450569e-002
1.184079e+003, 7.149757e-002
1.186007e+003, 6.868833e-002
1.187936e+003, 6.602550e-002
1.189864e+003, 6.333145e-002
1.191792e+003, 6.076880e-002
1.193721e+003, 5.819689e-002
1.195649e+003, 5.575347e-002
1.197578e+003, 5.302377e-002
1.199506e+003, 5.063855e-002
1.201435e+003, 4.809305e-002
1.203363e+003, 4.523532e-002
1.205292e+003, 4.249424e-002
1.207220e+003, 3.973147e-002
1.209149e+003, 3.679787e-002
1.211077e+003, 3.389329e-002
1.213006e+003, 3.098972e-002
1.214934e+003, 2.837027e-002
1.216863e+003, 2.575468e-002
1.218791e+003, 2.330983e-002
1.220719e+003, 2.097110e-002
1.222648e+003, 1.886227e-002
1.224576e+003, 1.703515e-002
1.226505e+003, 1.561698e-002
1.228433e+003, 1.444183e-002
1.230362e+003, 1.366493e-002
1.232290e+003, 1.281318e-002
1.234219e+003, 1.215010e-002
1.236147e+003, 1.158927e-002
1.238076e+003, 1.102328e-002
1.240004e+003, 1.036448e-002
1.241933e+003, 9.947482e-003
1.243861e+003, 9.418374e-003
1.245790e+003, 8.989900e-003
1.247718e+003, 8.523915e-003
1.249646e+003, 8.055964e-003
1.251575e+003, 7.564319e-003
1.253503e+003, 7.112612e-003
1.255432e+003, 6.617618e-003
1.257360e+003, 6.345374e-003
1.259289e+003, 6.176378e-003
1.261217e+003, 6.060030e-003
1.263146e+003, 5.719458e-003
1.265074e+003, 5.570238e-003
1.267003e+003, 5.594022e-003
1.268931e+003, 5.590091e-003
1.270860e+003, 5.312356e-003
1.272788e+003, 5.195021e-003
1.274717e+003, 5.095358e-003
1.276645e+003, 5.041165e-003
1.278573e+003, 4.723466e-003
1.280502e+003, 4.551709e-003
1.282430e+003, 4.325951e-003
1.284359e+003, 3.981799e-003
1.286287e+003, 3.652752e-003
1.288216e+003, 3.472950e-003
1.290144e+003, 3.145706e-003
1.292073e+003, 2.914490e-003
1.294001e+003, 2.643148e-003
1.295930e+003, 2.503481e-003
1.297858e+003, 2.117645e-003
1.299787e+003, 1.864137e-003
1.301715e+003, 1.778846e-003
1.303644e+003, 1.534702e-003
1.305572e+003, 1.286994e-003
1.307500e+003, 1.352748e-003
1.309429e+003, 1.211095e-003
1.311357e+003, 1.192040e-003
1.313286e+003, 1.134133e-003
1.315214e+003, 1.093882e-003
1.317143e+003, 8.209891e-004
1.319071e+003, 7.240725e-004
1.321000e+003, 5.551555e-004
1.322928e+003, 4.414800e-004
1.324857e+003, 4.693733e-004
1.326785e+003, 3.855026e-004
1.328714e+003, 1.634890e-004
1.330642e+003, 1.061911e-004
1.332571e+003, 1.154846e-004
1.334499e+003, 2.009680e-004
1.336427e+003, 1.802674e-004
1.338356e+003, 2.303933e-004
1.340284e+003, -9.520310e-005
1.342213e+003, -3.071761e-004
1.344141e+003, -2.820673e-004
1.346070e+003, -1.633239e-004
1.347998e+003, -2.534091e-004
1.349927e+003, -2.262240e-004
1.351855e+003, -3.094964e-004
1.353784e+003, -3.713405e-004
1.355712e+003, -5.535377e-004
1.357641e+003, -5.132316e-004
1.359569e+003, -4.853332e-004
1.361498e+003, -5.393554e-004
1.363426e+003, -6.774182e-004
1.365354e+003, -5.692967e-004
1.367283e+003, -5.541574e-004
1.369211e+003, -5.729423e-004
1.371140e+003, -4.634334e-004
1.373068e+003, -5.623943e-004
1.374997e+003, -8.303686e-004
1.376925e+003, -7.469202e-004
1.378854e+003, -8.083107e-004
1.380782e+003, -7.715632e-004
1.382711e+003, -8.888370e-004
1.384639e+003, -8.571317e-004
1.386568e+003, -8.997479e-004
1.388496e+003, -1.021325e-003
1.390424e+003, -1.061487e-003
1.392353e+003, -1.075172e-003
1.394281e+003, -1.152894e-003
1.396210e+003, -1.142004e-003
1.398138e+003, -9.512461e-004
1.400067e+003, -9.669317e-004
1.401995e+003, -1.050599e-003
1.403924e+003, -1.053997e-003
1.405852e+003, -9.036255e-004
1.407781e+003, -5.899161e-004
1.409709e+003, -7.052088e-004
1.411638e+003, -7.287618e-004
1.413566e+003, -7.865172e-004
1.415495e+003, -7.477547e-004
1.417423e+003, -5.813939e-004
1.419351e+003, -3.974091e-004
1.421280e+003, -4.709968e-004
1.423208e+003, -3.985550e-004
1.425137e+003, -5.357009e-004
1.427065e+003, -6.211387e-004
1.428994e+003, -6.806517e-004
1.430922e+003, -6.446483e-004
1.432851e+003, -5.216657e-004
1.434779e+003, -4.638740e-004
1.436708e+003, -6.068520e-004
1.438636e+003, -4.511892e-004
1.440565e+003, -5.347405e-004
1.442493e+003, -7.218107e-004
1.444422e+003, -7.948754e-004
1.446350e+003, -6.395182e-004
1.448278e+003, -6.794193e-004
1.450207e+003, -6.704469e-004
1.452135e+003, -6.641252e-004
1.454064e+003, -3.657424e-004
1.455992e+003, -3.708874e-004
1.457921e+003, -6.156230e-004
1.459849e+003, -3.557481e-004
1.461778e+003, -4.590330e-004
1.463706e+003, -5.340732e-004
1.465635e+003, -6.311153e-004
1.467563e+003, -3.312274e-004
1.469492e+003, -1.658729e-004
1.471420e+003, -1.634429e-004
1.473349e+003, -3.375307e-004
1.475277e+003, 9.482770e-006
1.477205e+003, -2.289817e-005
1.479134e+003, -5.627016e-005
1.481062e+003, -1.506772e-004
1.482991e+003, -2.410557e-004
1.484919e+003, -1.712362e-005
1.486848e+003, 6.592000e-005
1.488776e+003, -9.784788e-006
1.490705e+003, -1.581458e-004
1.492633e+003, 7.948419e-005
1.494562e+003, 1.321419e-004
1.496490e+003, 4.550450e-005
1.498419e+003, 2.611373e-005
1.500347e+003, -1.915649e-004
1.502276e+003, -1.615323e-004
1.504204e+003, 8.663851e-005
1.506132e+003, -2.824051e-004
1.508061e+003, -7.551467e-004
1.509989e+003, -5.656846e-004
1.511918e+003, -2.437660e-004
1.513846e+003, -1.152742e-004
1.515775e+003, 1.982540e-005
1.517703e+003, -1.324954e-004
1.519632e+003, 2.489218e-004
1.521560e+003, -1.332411e-004
1.523489e+003, 4.570237e-005
1.525417e+003, 2.128197e-004
1.527346e+003, -1.193284e-005
1.529274e+003, -2.003015e-004
1.531203e+003, 2.110028e-005
1.533131e+003, -1.912717e-004
1.535059e+003, -4.508549e-004
1.536988e+003, -2.525306e-004
1.538916e+003, -4.535959e-004
1.540845e+003, -9.966674e-004
1.542773e+003, -7.876452e-004
1.544702e+003, -5.453971e-004
1.546630e+003, -7.679324e-004
1.548559e+003, -9.211632e-004
1.550487e+003, -8.990213e-004
1.552416e+003, -6.243064e-004
1.554344e+003, -5.190109e-004
1.556273e+003, -3.833364e-004
1.558201e+003, -4.542419e-004
1.560130e+003, -7.703312e-004
1.562058e+003, -4.119680e-004
1.563986e+003, -2.753108e-004
1.565915e+003, -2.691415e-004
1.567843e+003, -1.246657e-004
1.569772e+003, 3.398483e-006
1.571700e+003, 3.444407e-004
1.573629e+003, 4.842088e-004
1.575557e+003, 3.573388e-004
1.577486e+003, 8.137737e-005
1.579414e+003, 4.464976e-004
1.581343e+003, 4.398375e-004
1.583271e+003, 5.369369e-004
1.585200e+003, 7.637811e-004
1.587128e+003, 6.287069e-004
1.589057e+003, 8.786863e-004
1.590985e+003, 1.099341e-003
1.592913e+003, 1.362059e-003
1.594842e+003, 1.381971e-003
1.596770e+003, 1.446899e-003
1.598699e+003, 1.602848e-003
1.600627e+003, 1.717176e-003
1.602556e+003, 1.944925e-003
1.604484e+003, 2.241116e-003
1.606413e+003, 2.156295e-003
1.608341e+003, 2.224274e-003
1.610270e+003, 2.293700e-003
1.612198e+003, 2.260085e-003
1.614127e+003, 2.184026e-003
1.616055e+003, 2.429060e-003
1.617984e+003, 1.839632e-003
1.619912e+003, 1.895682e-003
1.621840e+003, 1.779134e-003
1.623769e+003, 1.540851e-003
1.625697e+003, 1.685665e-003
1.627626e+003, 1.596618e-003
1.629554e+003, 1.163901e-003
1.631483e+003, 9.726527e-004
1.633411e+003, 9.562200e-004
1.635340e+003, 1.098150e-003
1.637268e+003, 1.063455e-003
1.639197e+003, 1.091134e-003
1.641125e+003, 1.131647e-003
1.643054e+003, 1.091127e-003
1.644982e+003, 9.403356e-004
1.646911e+003, 6.514154e-004
1.648839e+003, 6.078874e-004
1.650767e+003, 8.328726e-004
1.652696e+003, 6.746853e-004
1.654624e+003, 3.578618e-004
1.656553e+003, 6.757837e-004
1.658481e+003, 6.418632e-004
1.660410e+003, 6.950845e-004
1.662338e+003, 6.379642e-004
1.664267e+003, 5.599491e-004
1.666195e+003, 8.141617e-004
1.668124e+003, 8.042024e-004
1.670052e+003, 5.433734e-004
1.671981e+003, 5.682837e-004
1.673909e+003, 8.318369e-004
1.675838e+003, 4.914219e-004
1.677766e+003, 9.453371e-004
1.679694e+003, 1.074137e-003
1.681623e+003, 1.477705e-003
1.683551e+003, 1.536155e-003
1.685480e+003, 8.408129e-004
1.687408e+003, 1.018746e-003
1.689337e+003, 7.438532e-004
1.691265e+003, 5.612973e-004
1.693194e+003, 7.356504e-004
1.695122e+003, 8.860142e-004
1.697051e+003, 2.403981e-004
1.698979e+003, 7.198654e-004
1.700908e+003, 1.671985e-004
1.702836e+003, 4.039872e-004
1.704765e+003, 3.100030e-004
1.706693e+003, 1.497663e-004
1.708621e+003, 1.266657e-006
1.710550e+003, -1.238427e-004
1.712478e+003, 2.704508e-005
1.714407e+003, 4.518020e-006
1.716335e+003, -1.029280e-005
1.718264e+003, -4.684500e-004
1.720192e+003, -4.779071e-004
1.722121e+003, -8.008050e-004
1.724049e+003, -1.306108e-003
1.725978e+003, -1.469046e-003
1.727906e+003, -1.580288e-003
1.729835e+003, -1.724116e-003
1.731763e+003, -1.494877e-003
1.733692e+003, -1.759167e-003
1.735620e+003, -2.045533e-003
1.737548e+003, -1.658490e-003
1.739477e+003, -1.539453e-003
1.741405e+003, -1.549232e-003
1.743334e+003, -1.189539e-003
1.745262e+003, -1.006704e-003
1.747191e+003, -7.461450e-004
1.749119e+003, -4.964017e-004
1.751048e+003, -2.308430e-004
1.752976e+003, -3.215277e-004
1.754905e+003, -2.232555e-004
1.756833e+003, -2.923198e-004
1.758762e+003, -2.203382e-004
1.760690e+003, -8.899301e-005
1.762619e+003, -1.258031e-004
1.764547e+003, -1.359554e-004
1.766475e+003, -1.910811e-004
1.768404e+003, -3.353192e-004
1.770332e+003, 1.959878e-004
1.772261e+003, 2.393746e-004
1.774189e+003, 1.620924e-004
1.776118e+003, 9.563362e-005
1.778046e+003, 3.806993e-004
1.779975e+003, 7.388858e-004
1.781903e+003, 8.095517e-004
1.783832e+003, 6.448858e-004
1.785760e+003, 1.626439e-004
1.787689e+003, 2.927420e-004
1.789617e+003, 7.747129e-004
1.791546e+003, 7.425791e-004
1.793474e+003, 3.119859e-004
1.795402e+003, 2.756501e-004
1.797331e+003, 6.122438e-004
1.799259e+003, 5.853542e-004
1.801188e+003, 5.223148e-004
1.803116e+003, 5.796468e-004
1.805045e+003, 5.072930e-004
1.806973e+003, 2.617271e-004
1.808902e+003, 2.489542e-004
1.810830e+003, 5.050399e-005
1.812759e+003, -2.491042e-005
1.814687e+003, -1.921051e-004
1.816616e+003, -4.165245e-004
1.818544e+003, -2.308832e-004
1.820473e+003, -7.696334e-005
1.822401e+003, -4.788922e-004
1.824329e+003, -1.458589e-004
1.826258e+003, -2.770527e-004
1.828186e+003, 7.414189e-005
1.830115e+003, -1.989690e-004
1.832043e+003, -2.127842e-004
1.833972e+003, -1.379229e-004
1.835900e+003, 3.166608e-005
1.837829e+003, -1.481652e-004
1.839757e+003, -5.278225e-005
1.841686e+003, 7.827606e-005
1.843614e+003, -6.387131e-005
1.845543e+003, -4.435174e-004
1.847471e+003, 2.152589e-004
1.849400e+003, 9.374379e-005
1.851328e+003, 3.446601e-004
1.853256e+003, 8.488616e-004
1.855185e+003, 1.062304e-003
1.857113e+003, 1.093218e-003
1.859042e+003, 1.467944e-003
1.860970e+003, 1.242118e-003
1.862899e+003, 1.347362e-003
1.864827e+003, 1.673682e-003
1.866756e+003, 1.898234e-003
1.868684e+003, 1.794876e-003
1.870613e+003, 1.790810e-003
1.872541e+003, 1.682334e-003
1.874470e+003, 1.637171e-003
1.876398e+003, 1.278701e-003
1.878327e+003, 1.459673e-003
1.880255e+003, 1.821599e-003
1.882183e+003, 2.079556e-003
1.884112e+003, 1.804090e-003
1.886040e+003, 1.490338e-003
1.887969e+003, 9.538541e-004
1.889897e+003, 9.015872e-004
1.891826e+003, 8.018916e-004
1.893754e+003, 5.850019e-004
1.895683e+003, 1.653521e-004
1.897611e+003, 1.977367e-004
1.899540e+003, -4.739015e-005
1.901468e+003, 1.960112e-004
1.903397e+003, 8.824008e-005
1.905325e+003, -1.825111e-004
1.907254e+003, -7.827551e-004
1.909182e+003, -1.377848e-003
1.911110e+003, -1.679864e-003
1.913039e+003, -1.153766e-003
1.914967e+003, -8.134157e-004
1.916896e+003, -2.326321e-004
1.918824e+003, -8.128807e-004
1.920753e+003, -5.402456e-004
1.922681e+003, -3.576012e-004
1.924610e+003, -7.310170e-004
1.926538e+003, -1.605632e-003
1.928467e+003, -1.936728e-003
1.930395e+003, -2.198426e-003
1.932324e+003, -1.789812e-003
1.934252e+003, -1.532863e-003
1.936181e+003, -7.292322e-004
1.938109e+003, -1.421205e-003
1.940037e+003, -2.485874e-003
1.941966e+003, -3.067751e-003
1.943894e+003, -3.353426e-003
1.945823e+003, -2.890715e-003
1.947751e+003, -2.808331e-003
1.949680e+003, -2.864308e-003
1.951608e+003, -2.494075e-003
1.953537e+003, -3.769082e-003
1.955465e+003, -3.991352e-003
1.957394e+003, -3.583127e-003
1.959322e+003, -2.120764e-003
1.961251e+003, -2.526632e-003
1.963179e+003, -3.508953e-003
1.965108e+003, -3.423088e-003
1.967036e+003, -2.580984e-003
1.968964e+003, -3.051617e-003
1.970893e+003, -3.210744e-003
1.972821e+003, -3.013773e-003
1.974750e+003, -2.235060e-003
1.976678e+003, -2.681717e-003
1.978607e+003, -1.736805e-003
1.980535e+003, -2.381712e-003
1.982464e+003, -2.753782e-003
1.984392e+003, -4.025945e-003
1.986321e+003, -4.415778e-003
1.988249e+003, -3.852516e-003
1.990178e+003, -2.388665e-003
1.992106e+003, -3.255387e-003
1.994035e+003, -3.198667e-003
1.995963e+003, -3.732550e-003
1.997891e+003, -5.083967e-003
1.999820e+003, -5.611053e-003
2.001748e+003, -4.475037e-003
2.003677e+003, -6.026402e-003
2.005605e+003, -7.305299e-003
2.007534e+003, -6.868495e-003
2.009462e+003, -5.696333e-003
2.011391e+003, -7.259853e-003
2.013319e+003, -7.091026e-003
2.015248e+003, -6.379148e-003
2.017176e+003, -6.739842e-003
2.019105e+003, -6.800257e-003
2.021033e+003, -7.854060e-003
2.022962e+003, -9.473621e-003
2.024890e+003, -7.152650e-003
2.026818e+003, -6.905356e-003
2.028747e+003, -8.362282e-003
2.030675e+003, -9.099201e-003
2.032604e+003, -7.742218e-003
2.034532e+003, -6.532576e-003
2.036461e+003, -6.524907e-003
2.038389e+003, -8.374760e-003
2.040318e+003, -9.264216e-003
2.042246e+003, -8.533652e-003
2.044175e+003, -7.064035e-003
2.046103e+003, -6.143140e-003
2.048032e+003, -5.694132e-003
2.049960e+003, -5.912652e-003
2.051889e+003, -4.966758e-003
2.053817e+003, -5.014256e-003
2.055746e+003, -6.121310e-003
2.057674e+003, -7.230541e-003
2.059603e+003, -6.525001e-003
2.061531e+003, -7.274532e-003
2.063459e+003, -6.711509e-003
2.065388e+003, -6.954663e-003
2.067316e+003, -7.590113e-003
2.069245e+003, -6.921869e-003
2.071173e+003, -5.596949e-003
2.073102e+003, -5.614843e-003
2.075030e+003, -5.189721e-003
2.076959e+003, -6.124869e-003
2.078887e+003, -6.330128e-003
2.080816e+003, -6.126499e-003
2.082744e+003, -5.155794e-003
2.084673e+003, -5.131955e-003
2.086601e+003, -5.140904e-003
2.088530e+003, -5.443012e-003
2.090458e+003, -5.778125e-003
2.092386e+003, -6.911467e-003
2.094315e+003, -6.031304e-003
2.096243e+003, -5.987410e-003
2.098172e+003, -6.432841e-003
2.100100e+003, -5.605893e-003
2.102029e+003, -5.416811e-003
2.103957e+003, -5.520893e-003
2.105886e+003, -4.836567e-003
2.107814e+003, -4.567645e-003
2.109743e+003, -5.071111e-003
2.111671e+003, -5.419042e-003
2.113600e+003, -5.907791e-003
2.115528e+003, -6.754391e-003
2.117457e+003, -6.617764e-003
2.119385e+003, -6.193785e-003
2.121313e+003, -6.014611e-003
2.123242e+003, -6.807417e-003
2.125170e+003, -6.972089e-003
2.127099e+003, -6.536549e-003
2.129027e+003, -7.138975e-003
2.130956e+003, -8.349746e-003
2.132884e+003, -7.670970e-003
2.134813e+003, -8.628152e-003
2.136741e+003, -9.671762e-003
2.138670e+003, -8.950011e-003
2.140598e+003, -9.067096e-003
2.142527e+003, -1.083012e-002
2.144455e+003, -1.113082e-002
2.146384e+003, -1.157139e-002
2.148312e+003, -1.195704e-002
2.150240e+003, -1.263450e-002
2.152169e+003, -1.197310e-002
2.154097e+003, -1.419067e-002
2.156026e+003, -1.608108e-002
2.157954e+003, -1.406040e-002
2.159883e+003, -1.099539e-002
2.161811e+003, -1.099532e-002
2.163740e+003, -1.122111e-002
2.165668e+003, -1.126112e-002
2.167597e+003, -1.093658e-002
2.169525e+003, -1.184188e-002
2.171454e+003, -1.246746e-002
2.173382e+003, -1.253946e-002
2.175311e+003, -1.106256e-002
2.177239e+003, -1.073319e-002
2.179167e+003, -1.157330e-002
2.181096e+003, -1.270341e-002
2.183024e+003, -1.050427e-002
2.184953e+003, -9.096518e-003
2.186881e+003, -8.427194e-003
2.188810e+003, -9.444882e-003
2.190738e+003, -1.031360e-002
2.192667e+003, -8.256922e-003
2.194595e+003, -6.400231e-003
2.196524e+003, -7.495037e-003
2.198452e+003, -8.741562e-003
2.200381e+003, -9.533197e-003
2.202309e+003, -8.465380e-003
2.204238e+003, -8.374756e-003
2.206166e+003, -8.258129e-003
2.208094e+003, -7.782202e-003
2.210023e+003, -7.917519e-003
2.211951e+003, -9.349689e-003
2.213880e+003, -9.477871e-003
2.215808e+003, -8.653907e-003
2.217737e+003, -8.049031e-003
2.219665e+003, -7.238307e-003
2.221594e+003, -6.486348e-003
2.223522e+003, -6.751247e-003
2.225451e+003, -6.198188e-003
2.227379e+003, -6.385358e-003
2.229308e+003, -6.916915e-003
2.231236e+003, -6.930266e-003
2.233165e+003, -5.351077e-003
2.235093e+003, -4.258145e-003
2.237021e+003, -3.886055e-003
2.238950e+003, -5.528809e-003
2.240878e+003, -6.599709e-003
2.242807e+003, -6.288577e-003
2.244735e+003, -5.593435e-003
2.246664e+003, -5.167454e-003
2.248592e+003, -5.189212e-003
2.250521e+003, -5.958363e-003
2.252449e+003, -6.029805e-003
2.254378e+003, -4.633076e-003
2.256306e+003, -4.356518e-003
2.258235e+003, -5.442390e-003
2.260163e+003, -5.573623e-003
2.262092e+003, -5.106179e-003
2.264020e+003, -4.233424e-003
2.265948e+003, -4.255071e-003
2.267877e+003, -3.665723e-003
2.269805e+003, -3.799310e-003
2.271734e+003, -3.609499e-003
2.273662e+003, -2.898871e-003
2.275591e+003, -2.644581e-003
2.277519e+003, -2.577967e-003
2.279448e+003, -2.363367e-003
2.281376e+003, -2.306909e-003
2.283305e+003, -2.651163e-003
2.285233e+003, -2.975395e-003
2.287162e+003, -2.755044e-003
2.289090e+003, -2.502360e-003
2.291019e+003, -1.822743e-003
2.292947e+003, -8.861074e-004
2.294875e+003, -3.210237e-004
2.296804e+003, -7.607063e-004
2.298732e+003, -9.625765e-004
2.300661e+003, -1.067200e-003
2.302589e+003, -1.190887e-003
2.304518e+003, -1.437109e-003
2.306446e+003, -1.513618e-003
2.308375e+003, -1.721047e-003
2.310303e+003, -1.837874e-003
2.312232e+003, -1.504251e-003
2.314160e+003, -9.568229e-004
2.316089e+003, -6.191389e-004
2.318017e+003, -5.966256e-006
2.319946e+003, -1.125931e-006
2.321874e+003, 5.537676e-004
2.323802e+003, 9.481356e-004
2.325731e+003, 2.035750e-004
2.327659e+003, -6.545372e-004
2.329588e+003, -1.039342e-003
2.331516e+003, -1.008578e-003
2.333445e+003, -5.504376e-004
2.335373e+003, -6.183807e-004
2.337302e+003, -7.626637e-004
2.339230e+003, -1.244814e-003
2.341159e+003, -8.906896e-004
2.343087e+003, -4.085708e-004
2.345016e+003, -1.678956e-004
2.346944e+003, -4.957790e-004
2.348873e+003, -9.542491e-004
2.350801e+003, -8.012627e-004
2.352729e+003, -5.537988e-004
2.354658e+003, -2.763749e-004
2.356586e+003, 3.307482e-004
2.358515e+003, 3.956268e-004
2.360443e+003, -1.170090e-004
2.362372e+003, -3.876327e-004
2.364300e+003, -4.297314e-004
2.366229e+003, -8.405739e-004
2.368157e+003, -6.237485e-004
2.370086e+003, -2.375001e-004
2.372014e+003, -4.227608e-004
2.373942e+003, -5.640934e-004
2.375871e+003, -2.475529e-004
2.377799e+003, 2.049812e-004
2.379728e+003, 2.515321e-004
2.381656e+003, -3.020677e-004
2.383585e+003, -2.809143e-004
2.385513e+003, -6.626986e-004
2.387442e+003, -8.183470e-004
2.389370e+003, -6.035307e-004
2.391299e+003, -6.264692e-004
2.393227e+003, -9.934637e-004
2.395156e+003, -9.428773e-004
2.397084e+003, -1.245462e-003
2.399012e+003, -1.229926e-003
2.400941e+003, -5.995136e-004
2.402869e+003, -4.294461e-004
2.404798e+003, -7.551608e-004
2.406726e+003, -8.199111e-004
2.408655e+003, -5.569080e-004
2.410583e+003, -1.695328e-004
2.412512e+003, 1.947727e-004
2.414440e+003, 1.313179e-005
2.416369e+003, -2.338415e-004
2.418297e+003, -1.628971e-004
2.420226e+003, -7.912206e-004
2.422154e+003, -9.201512e-004
2.424083e+003, -6.504518e-004
2.426011e+003, -3.354179e-004
2.427939e+003, 5.795090e-005
2.429868e+003, 7.423336e-005
2.431796e+003, -5.348818e-004
2.433725e+003, -6.380208e-004
2.435653e+003, -5.259130e-004
2.437582e+003, -4.430821e-004
2.439510e+003, -6.035816e-004
2.441439e+003, 1.581812e-004
2.443367e+003, 4.491004e-004
2.445296e+003, 4.568017e-004
2.447224e+003, 3.740959e-004
2.449153e+003, 2.123882e-004
2.451081e+003, -2.648725e-005
2.453010e+003, 1.306626e-003
2.454938e+003, 1.826638e-003
2.456866e+003, 1.368852e-003
2.458795e+003, 1.069195e-003
2.460723e+003, -1.402627e-004
2.462652e+003, -9.209761e-004
2.464580e+003, -1.922095e-005
2.466509e+003, 5.374601e-004
2.468437e+003, 9.606379e-004
2.470366e+003, 3.568328e-004
2.472294e+003, 1.916177e-004
2.474223e+003, 8.076339e-004
2.476151e+003, 6.739076e-004
2.478080e+003, -3.760421e-004
2.480008e+003, -1.499320e-004
2.481937e+003, 3.240341e-004
2.483865e+003, -5.255710e-005
2.485793e+003, 3.782046e-004
2.487722e+003, 1.404140e-003
2.489650e+003, 1.311805e-003
2.491579e+003, 1.242403e-003
2.493507e+003, 1.507533e-003
2.495436e+003, 1.280204e-003
2.497364e+003, 7.057264e-004
2.499293e+003, 3.752841e-004
2.501221e+003, -1.244851e-004
2.503150e+003, -5.002564e-004
2.505078e+003, -3.508208e-004
2.507007e+003, 1.434585e-005
2.508935e+003, -2.364511e-004
2.510864e+003, -4.492522e-004
2.512792e+003, -7.199441e-004
2.514720e+003, -3.804606e-004
2.516649e+003, -5.113881e-004
2.518577e+003, -1.787017e-004
2.520506e+003, 2.473429e-004
2.522434e+003, 4.100196e-004
2.524363e+003, -1.911204e-004
2.526291e+003, 7.519015e-005
2.528220e+003, 4.000567e-004
2.530148e+003, 8.458112e-004
2.532077e+003, 1.180212e-003
2.534005e+003, 1.231749e-003
2.535934e+003, 8.130725e-005
2.537862e+003, -5.609600e-004
2.539791e+003, -5.114810e-004
2.541719e+003, 1.685309e-004
2.543647e+003, 9.337631e-004
2.545576e+003, 8.106250e-004
2.547504e+003, 5.593956e-004
2.549433e+003, 6.506441e-004
2.551361e+003, 9.324383e-005
2.553290e+003, 2.867031e-004
2.555218e+003, 6.135709e-004
2.557147e+003, 6.231118e-004
2.559075e+003, 5.340509e-004
2.561004e+003, 1.154577e-003
2.562932e+003, 6.821749e-004
2.564861e+003, 5.146345e-004
2.566789e+003, 4.890512e-004
2.568718e+003, 4.224731e-004
2.570646e+003, 9.930358e-005
2.572574e+003, -2.281173e-004
2.574503e+003, -2.125848e-004
2.576431e+003, -2.035225e-005
2.578360e+003, 1.786122e-004
2.580288e+003, 3.803459e-004
2.582217e+003, 3.593897e-004
2.584145e+003, 3.860404e-004
2.586074e+003, 7.247136e-004
2.588002e+003, 8.108245e-004
2.589931e+003, 9.325983e-004
2.591859e+003, 1.065227e-003
2.593788e+003, 1.327983e-003
2.595716e+003, 1.198847e-003
2.597645e+003, 1.207784e-003
2.599573e+003, 1.478853e-003
2.601501e+003, 8.846465e-004
2.603430e+003, 9.605476e-004
2.605358e+003, 1.454991e-003
2.607287e+003, 1.288939e-003
2.609215e+003, 7.801538e-004
2.611144e+003, 5.650443e-004
2.613072e+003, 8.400502e-004
2.615001e+003, 8.224590e-004
2.616929e+003, 1.045184e-003
2.618858e+003, 1.227348e-003
2.620786e+003, 8.897181e-004
2.622715e+003, 6.441444e-004
2.624643e+003, 8.400908e-004
2.626572e+003, 1.039976e-003
2.628500e+003, 1.077719e-003
2.630428e+003, 1.152036e-003
2.632357e+003, 1.333816e-003
2.634285e+003, 1.505765e-003
2.636214e+003, 1.420220e-003
2.638142e+003, 8.062682e-004
2.640071e+003, 2.163706e-004
2.641999e+003, 5.153997e-004
2.643928e+003, 8.285672e-004
2.645856e+003, 7.004254e-004
2.647785e+003, 7.424687e-004
2.649713e+003, 8.935665e-004
2.651642e+003, 7.641850e-004
2.653570e+003, 1.063187e-003
2.655499e+003, 1.141776e-003
2.657427e+003, 8.037182e-004
2.659355e+003, 3.341812e-004
2.661284e+003, 7.132209e-004
2.663212e+003, 1.017706e-003
2.665141e+003, 6.503758e-004
2.667069e+003, -9.426280e-006
2.668998e+003, -2.310456e-005
2.670926e+003, -4.128200e-005
2.672855e+003, 2.580172e-004
2.674783e+003, 6.065429e-004
2.676712e+003, 7.889526e-004
2.678640e+003, 5.927032e-004
2.680569e+003, 5.427556e-004
2.682497e+003, 4.725272e-004
2.684426e+003, 5.386657e-004
2.686354e+003, 5.951521e-004
2.688282e+003, 5.712042e-004
2.690211e+003, 5.250349e-004
2.692139e+003, 4.322770e-004
2.694068e+003, 4.231900e-004
2.695996e+003, -1.898259e-005
2.697925e+003, 1.855842e-005
2.699853e+003, 2.719448e-004
2.701782e+003, 1.912245e-004
2.703710e+003, 3.839352e-004
2.705639e+003, 6.235773e-004
2.707567e+003, 5.852625e-004
2.709496e+003, 1.456017e-004
2.711424e+003, -1.423365e-004
2.713353e+003, -3.145348e-004
2.715281e+003, -8.176945e-005
2.717209e+003, 1.074011e-004
2.719138e+003, -1.065520e-004
2.721066e+003, -1.309548e-004
2.722995e+003, 2.819237e-004
2.724923e+003, 8.503149e-004
2.726852e+003, 1.008299e-003
2.728780e+003, 8.034172e-004
2.730709e+003, 3.770403e-004
2.732637e+003, -3.238505e-004
2.734566e+003, 1.034067e-004
2.736494e+003, 5.031668e-004
2.738423e+003, 4.541056e-004
2.740351e+003, 7.628393e-004
2.742280e+003, 1.136182e-003
2.744208e+003, 9.254309e-004
2.746136e+003, 5.899158e-004
2.748065e+003, 2.072801e-004
2.749993e+003, 2.757746e-004
2.751922e+003, 3.276573e-004
2.753850e+003, 4.329361e-004
2.755779e+003, 6.321626e-004
2.757707e+003, -1.476361e-005
2.759636e+003, -5.951867e-004
2.761564e+003, -4.908310e-006
2.763493e+003, 3.181081e-004
2.765421e+003, 2.286354e-004
2.767350e+003, -1.185561e-004
2.769278e+003, -7.827103e-005
2.771207e+003, 6.765528e-005
2.773135e+003, 2.787301e-004
2.775063e+003, 3.675935e-004
2.776992e+003, 1.132080e-003
2.778920e+003, 9.629599e-004
2.780849e+003, 5.470828e-004
2.782777e+003, -1.422435e-004
2.784706e+003, -6.463540e-005
2.786634e+003, 7.629992e-004
2.788563e+003, 9.043769e-004
2.790491e+003, 7.976017e-004
2.792420e+003, 7.584349e-004
2.794348e+003, 6.282951e-004
2.796277e+003, 5.633635e-004
2.798205e+003, 9.142554e-004
2.800134e+003, 1.769860e-003
2.802062e+003, 1.589687e-003
2.803990e+003, 1.303559e-003
2.805919e+003, 1.006351e-003
2.807847e+003, 7.280777e-004
2.809776e+003, 8.720443e-004
2.811704e+003, 1.375204e-003
2.813633e+003, 1.464274e-003
2.815561e+003, 9.620464e-004
2.817490e+003, 8.569941e-004
2.819418e+003, 6.403939e-004
2.821347e+003, 1.015103e-004
2.823275e+003, 6.827860e-004
2.825204e+003, 1.093908e-003
2.827132e+003, 1.028496e-003
2.829061e+003, 6.551794e-004
2.830989e+003, 8.938597e-004
2.832917e+003, 9.750661e-004
2.834846e+003, 5.804035e-004
2.836774e+003, 3.816787e-004
2.838703e+003, 7.544714e-005
2.840631e+003, 2.399368e-004
2.842560e+003, 1.324316e-003
2.844488e+003, 2.166847e-003
2.846417e+003, 1.637095e-003
2.848345e+003, 1.161475e-003
2.850274e+003, 2.083702e-003
2.852202e+003, 1.666878e-003
2.854131e+003, 1.014991e-003
2.856059e+003, 1.421357e-003
2.857988e+003, 2.034462e-003
2.859916e+003, 1.971494e-003
2.861844e+003, 1.628813e-003
2.863773e+003, 1.443048e-003
2.865701e+003, 1.690893e-003
2.867630e+003, 1.121838e-003
2.869558e+003, 1.075624e-003
2.871487e+003, 1.308989e-003
2.873415e+003, 8.955362e-004
2.875344e+003, 6.190561e-004
2.877272e+003, 1.222567e-003
2.879201e+003, 1.337191e-003
2.881129e+003, 6.011559e-004
2.883058e+003, 6.043431e-004
2.884986e+003, 9.684939e-004
2.886915e+003, 7.507624e-004
2.888843e+003, 1.236275e-003
2.890771e+003, 1.844708e-003
2.892700e+003, 1.440436e-003
2.894628e+003, 1.175456e-003
2.896557e+003, 1.315304e-003
2.898485e+003, 5.807942e-004
2.900414e+003, 4.211707e-004
2.902342e+003, 9.398821e-004
2.904271e+003, 7.196943e-004
2.906199e+003, 5.637852e-004
2.908128e+003, 9.324645e-004
2.910056e+003, 7.563988e-004
2.911985e+003, 4.169277e-004
2.913913e+003, 9.395445e-004
2.915842e+003, 8.778537e-004
2.917770e+003, 1.376885e-003
2.919698e+003, 1.922890e-003
2.921627e+003, 2.142500e-003
2.923555e+003, 2.441062e-003
2.925484e+003, 2.047713e-003
2.927412e+003, 1.627711e-003
2.929341e+003, 1.388688e-003
2.931269e+003, 1.188721e-003
2.933198e+003, 6.207551e-004
2.935126e+003, -3.671867e-004
2.937055e+003, -1.659887e-004
2.938983e+003, 9.072722e-004
2.940912e+003, 1.265108e-003
2.942840e+003, 8.508092e-004
2.944769e+003, -4.801061e-005
2.946697e+003, -1.415875e-004
2.948625e+003, 3.287002e-004
2.950554e+003, -4.363200e-005
2.952482e+003, -6.906861e-004
2.954411e+003, -7.225530e-004
2.956339e+003, -1.054133e-004
2.958268e+003, -2.715212e-004
2.960196e+003, -1.149217e-003
2.962125e+003, -1.134453e-003
2.964053e+003, -8.114824e-004
2.965982e+003, 8.446840e-005
2.967910e+003, 8.175139e-004
2.969839e+003, 5.667290e-004
2.971767e+003, -1.941001e-004
2.973696e+003, -1.197871e-003
2.975624e+003, -7.389595e-004
2.977552e+003, -4.987366e-005
2.979481e+003, -2.239238e-004
2.981409e+003, 6.308081e-005
2.983338e+003, 7.429614e-005
2.985266e+003, 3.469351e-006
2.987195e+003, 4.967725e-004
2.989123e+003, 8.215764e-004
2.991052e+003, 7.404721e-004
2.992980e+003, 9.285896e-004
2.994909e+003, 8.597831e-004
2.996837e+003, 1.062536e-003
2.998766e+003, 1.246810e-003
3.000694e+003, 1.345571e-003
3.002623e+003, 2.315219e-003
3.004551e+003, 1.451615e-003
3.006479e+003, 1.745079e-004
3.008408e+003, 1.823877e-004
3.010336e+003, 8.257561e-004
3.012265e+003, 1.592087e-003
3.014193e+003, 1.352545e-003
3.016122e+003, 6.432849e-004
3.018050e+003, 4.585535e-004
3.019979e+003, 1.080863e-003
3.021907e+003, 9.912711e-004
3.023836e+003, 8.399122e-004
3.025764e+003, 4.796187e-004
3.027693e+003, 6.366727e-004
3.029621e+003, 1.089554e-003
3.031550e+003, 1.122664e-003
3.033478e+003, 6.915637e-004
3.035406e+003, 9.405434e-004
3.037335e+003, 1.040725e-003
3.039263e+003, 6.328884e-004
3.041192e+003, -4.145071e-005
3.043120e+003, 1.029553e-004
3.045049e+003, 3.910022e-004
3.046977e+003, -1.280075e-004
3.048906e+003, 1.197835e-004
3.050834e+003, 7.324059e-004
3.052763e+003, 1.305892e-003
3.054691e+003, 9.283724e-004
3.056620e+003, 1.319819e-003
3.058548e+003, 1.352998e-003
3.060477e+003, 1.479020e-004
3.062405e+003, -1.540611e-004
3.064333e+003, 2.524533e-004
3.066262e+003, -1.594651e-005
3.068190e+003, 2.632398e-004
3.070119e+003, 7.782972e-004
3.072047e+003, 1.104463e-003
3.073976e+003, 7.118573e-004
3.075904e+003, -5.922325e-005
3.077833e+003, 4.605876e-005
3.079761e+003, -1.664135e-004
3.081690e+003, -9.764501e-004
3.083618e+003, -1.128243e-003
3.085547e+003, -5.115352e-004
3.087475e+003, 4.350846e-004
3.089404e+003, 1.039984e-003
3.091332e+003, 1.311036e-003
3.093260e+003, 1.580102e-003
3.095189e+003, 1.867023e-003
3.097117e+003, 1.871772e-003
3.099046e+003, 1.212510e-003
3.100974e+003, 1.206997e-003
3.102903e+003, 1.115178e-003
3.104831e+003, 1.521136e-003
3.106760e+003, 1.940765e-003
3.108688e+003, 8.951286e-004
3.110617e+003, 4.725200e-004
3.112545e+003, 4.575492e-004
3.114474e+003, 3.874264e-005
3.116402e+003, 2.190338e-004
3.118331e+003, -1.179308e-004
3.120259e+003, -1.398446e-006
3.122188e+003, 1.978982e-004
3.124116e+003, -4.217274e-004
3.126044e+003, 6.290459e-004
3.127973e+003, 1.523179e-003
3.129901e+003, 1.636885e-003
3.131830e+003, 4.996068e-004
3.133758e+003, 7.643903e-004
3.135687e+003, 1.507293e-003
3.137615e+003, 1.308337e-003
3.139544e+003, 1.505643e-003
3.141472e+003, 1.509876e-003
3.143401e+003, 1.174303e-003
3.145329e+003, 8.359416e-004
3.147258e+003, 3.869156e-004
3.149186e+003, 2.651337e-004
3.151115e+003, -6.255052e-004
3.153043e+003, 3.844865e-004
3.154971e+003, 8.718446e-004
3.156900e+003, 3.430629e-005
3.158828e+003, 4.321796e-004
3.160757e+003, 1.509674e-003
3.162685e+003, 1.519820e-003
3.164614e+003, 5.367737e-004
3.166542e+003, 4.401086e-004
3.168471e+003, 6.872891e-004
3.170399e+003, 4.970607e-004
3.172328e+003, 9.966054e-004
3.174256e+003, 9.204495e-004
3.176185e+003, 6.161129e-004
3.178113e+003, -6.295851e-005
3.180042e+003, -6.838124e-004
3.181970e+003, 6.496631e-004
3.183898e+003, 1.530307e-003
3.185827e+003, 9.497915e-004
3.187755e+003, 6.946828e-004
3.189684e+003, 9.166463e-004
3.191612e+003, 1.368397e-003
3.193541e+003, 1.368179e-003
3.195469e+003, 6.929137e-004
3.197398e+003, 1.711586e-004
3.199326e+003, 6.011610e-004
3.201255e+003, 1.738106e-004
3.203183e+003, 1.356653e-004
3.205112e+003, 4.275900e-004
3.207040e+003, -2.141037e-004
3.208969e+003, -9.912554e-005
3.210897e+003, 1.155365e-003
3.212825e+003, 1.597120e-003
3.214754e+003, 1.346923e-003
3.216682e+003, 3.297447e-004
3.218611e+003, -4.802053e-004
3.220539e+003, -5.167581e-004
3.222468e+003, -2.871332e-005
3.224396e+003, 3.732808e-004
3.226325e+003, 3.484353e-004
3.228253e+003, 3.637723e-005
3.230182e+003, -3.512653e-004
3.232110e+003, -1.175470e-003
3.234039e+003, -3.627491e-004
3.235967e+003, 2.400070e-004
3.237896e+003, -6.104851e-004
3.239824e+003, -1.281611e-003
3.241752e+003, -6.635427e-004
3.243681e+003, -4.635727e-004
3.245609e+003, -3.364579e-004
3.247538e+003, -1.915154e-004
3.249466e+003, 3.412373e-004
3.251395e+003, 7.071859e-004
3.253323e+003, 2.125935e-004
3.255252e+003, 6.278628e-004
3.257180e+003, 7.973625e-004
3.259109e+003, 4.042878e-004
3.261037e+003, -5.717979e-004
3.262966e+003, -1.022373e-003
3.264894e+003, -3.350103e-004
3.266823e+003, 1.962299e-004
3.268751e+003, -5.071022e-006
3.270679e+003, -1.060482e-003
3.272608e+003, 9.593515e-005
3.274536e+003, 9.989535e-004
3.276465e+003, -1.777573e-004
3.278393e+003, -1.398035e-003
3.280322e+003, -8.304489e-004
3.282250e+003, -1.814388e-004
3.284179e+003, -4.936692e-004
3.286107e+003, -5.425610e-004
3.288036e+003, -9.136900e-004
3.289964e+003, -1.000541e-003
3.291893e+003, -1.842585e-003
3.293821e+003, -1.258726e-003
3.295750e+003, 8.255258e-004
3.297678e+003, 1.089366e-003
3.299606e+003, -8.025387e-004
3.301535e+003, -1.536326e-003
3.303463e+003, -1.592942e-003
3.305392e+003, -1.630033e-003
3.307320e+003, -8.879402e-004
3.309249e+003, -1.411496e-003
3.311177e+003, -9.880790e-004
3.313106e+003, 1.130856e-004
3.315034e+003, 6.679366e-004
3.316963e+003, -8.892745e-005
3.318891e+003, -2.356078e-004
3.320820e+003, 2.829554e-005
3.322748e+003, 9.454681e-005
3.324677e+003, -1.279151e-004
3.326605e+003, 1.659221e-004
3.328533e+003, -3.087666e-004
3.330462e+003, -5.682826e-004
3.332390e+003, -8.445270e-004
3.334319e+003, -1.084840e-003
3.336247e+003, -9.818692e-004
3.338176e+003, -3.277545e-004
3.340104e+003, -4.474023e-004
3.342033e+003, -2.353121e-004
3.343961e+003, -1.130249e-004
3.345890e+003, -4.586300e-004
3.347818e+003, -2.517226e-004
3.349747e+003, 1.208478e-006
3.351675e+003, 6.848242e-005
3.353604e+003, 2.693450e-004
3.355532e+003, -8.335662e-004
3.357460e+003, -4.738577e-005
3.359389e+003, 4.039632e-004
3.361317e+003, 1.229153e-003
3.363246e+003, 9.359478e-005
3.365174e+003, -1.868625e-003
3.367103e+003, -1.385567e-003
3.369031e+003, -4.273492e-004
3.370960e+003, -1.272744e-003
3.372888e+003, -4.642038e-004
3.374817e+003, 7.766162e-005
3.376745e+003, -9.902709e-004
3.378674e+003, -2.191602e-003
3.380602e+003, -3.087803e-004
3.382531e+003, 9.212716e-004
3.384459e+003, 1.216783e-003
3.386387e+003, 1.359416e-003
3.388316e+003, 6.923935e-004
3.390244e+003, -1.307168e-004
3.392173e+003, 2.834554e-004
3.394101e+003, 3.979651e-004
3.396030e+003, 9.460010e-004
3.397958e+003, 4.420361e-004
3.399887e+003, -3.400005e-004
3.401815e+003, 4.300861e-004
3.403744e+003, 1.083307e-003
3.405672e+003, -4.516058e-004
3.407601e+003, -1.317279e-004
3.409529e+003, -2.992337e-004
3.411458e+003, -4.142973e-004
3.413386e+003, -3.894266e-004
3.415314e+003, 1.181632e-004
3.417243e+003, 5.165771e-005
3.419171e+003, 2.600597e-004
3.421100e+003, -4.477752e-004
3.423028e+003, -4.552168e-004
3.424957e+003, -1.724372e-004
3.426885e+003, -4.176326e-004
3.428814e+003, -5.020343e-004
3.430742e+003, -9.517598e-004
3.432671e+003, -1.091348e-003
3.434599e+003, -2.552476e-005
3.436528e+003, 3.458321e-004
3.438456e+003, -6.321090e-005
3.440385e+003, 6.774275e-004
3.442313e+003, 1.817104e-003
3.444241e+003, 8.677146e-004
3.446170e+003, 4.733687e-004
3.448098e+003, -2.707353e-004
3.450027e+003, 8.883637e-004
3.451955e+003, 1.262209e-003
3.453884e+003, 7.030161e-004
3.455812e+003, 6.512633e-004
3.457741e+003, 1.460140e-004
3.459669e+003, -7.235287e-004
3.461598e+003, 2.603920e-007
3.463526e+003, 7.726474e-004
3.465455e+003, 5.240678e-004
3.467383e+003, -5.268184e-004
3.469312e+003, 2.952175e-004
3.471240e+003, 1.512956e-003
3.473168e+003, 8.335417e-004
3.475097e+003, -3.351875e-004
3.477025e+003, 6.804892e-005
3.478954e+003, 9.153814e-004
3.480882e+003, 6.322308e-004
3.482811e+003, -4.403226e-004
3.484739e+003, 3.232610e-004
3.486668e+003, 6.643697e-004
3.488596e+003, 1.241863e-003
3.490525e+003, 1.454500e-003
3.492453e+003, 1.462612e-003
3.494382e+003, 9.086379e-004
3.496310e+003, 2.277321e-003
3.498239e+003, 1.909876e-003
3.500167e+003, 1.332869e-003
3.502095e+003, 4.319889e-004
3.504024e+003, -5.971952e-004
3.505952e+003, -7.539821e-004
3.507881e+003, 1.490173e-003
3.509809e+003, 3.194363e-003
3.511738e+003, 2.276569e-003
3.513666e+003, 4.578234e-004
3.515595e+003, 4.531215e-004
3.517523e+003, -1.004198e-004
3.519452e+003, 8.971227e-004
3.521380e+003, 1.539242e-003
3.523309e+003, 2.335631e-003
3.525237e+003, 2.381281e-003
3.527166e+003, 1.160763e-003
3.529094e+003, -2.430279e-004
3.531022e+003, 1.106954e-003
3.532951e+003, 1.979376e-003
3.534879e+003, 1.880232e-003
3.536808e+003, 2.052687e-003
3.538736e+003, 1.664385e-003
3.540665e+003, 3.389329e-004
3.542593e+003, 7.020927e-004
3.544522e+003, 7.036530e-004
3.546450e+003, 4.635543e-004
3.548379e+003, 7.454373e-004
3.550307e+003, 4.979842e-004
3.552236e+003, 3.499833e-005
3.554164e+003, 6.732373e-004
3.556093e+003, -1.307555e-004
3.558021e+003, -1.146407e-003
3.559949e+003, -7.294276e-004
3.561878e+003, 6.914735e-004
3.563806e+003, 1.323026e-003
3.565735e+003, 1.577783e-003
3.567663e+003, 6.336297e-004
3.569592e+003, 1.447736e-003
3.571520e+003, 1.533473e-003
3.573449e+003, 1.697198e-003
3.575377e+003, 1.853683e-003
3.577306e+003, 1.193865e-003
3.579234e+003, 4.710960e-004
3.581163e+003, 1.495921e-003
3.583091e+003, 2.656592e-003
3.585020e+003, 2.193314e-003
3.586948e+003, -1.144542e-004
3.588876e+003, 1.122769e-004
3.590805e+003, 1.531870e-003
3.592733e+003, 1.263314e-003
3.594662e+003, 1.539299e-003
3.596590e+003, 3.209399e-003
3.598519e+003, 1.932280e-003
3.600447e+003, -2.184979e-004
3.602376e+003, 1.099608e-003
3.604304e+003, 2.479132e-003
3.606233e+003, 2.866947e-004
3.608161e+003, -9.777928e-004
3.610090e+003, -5.106154e-004
3.612018e+003, 3.680770e-004
3.613947e+003, 3.567468e-004
3.615875e+003, 2.606267e-003
3.617803e+003, 1.723729e-003
3.619732e+003, 7.672265e-004
3.621660e+003, 1.302611e-003
3.623589e+003, 1.231376e-003
3.625517e+003, 4.900909e-004
3.627446e+003, 5.654203e-004
3.629374e+003, 2.122872e-004
3.631303e+003, 5.117201e-004
3.633231e+003, -7.682455e-004
3.635160e+003, -9.288776e-004
3.637088e+003, -8.782037e-004
3.639017e+003, -2.312059e-004
3.640945e+003, -5.613980e-004
3.642874e+003, 5.915095e-005
3.644802e+003, 1.074903e-004
3.646730e+003, -1.073968e-003
3.648659e+003, -1.158304e-003
3.650587e+003, 6.263255e-004
3.652516e+003, -2.363525e-004
3.654444e+003, -1.228267e-003
3.656373e+003, -8.258897e-004
3.658301e+003, 1.399242e-003
3.660230e+003, 1.076957e-003
3.662158e+003, -1.754912e-004
3.664087e+003, -4.835665e-005
3.666015e+003, 1.894824e-003
3.667944e+003, 2.681966e-004
3.669872e+003, -1.856620e-003
3.671801e+003, -1.513466e-003
3.673729e+003, 5.380808e-004
3.675657e+003, 1.250163e-004
3.677586e+003, 9.334142e-004
3.679514e+003, 6.780926e-004
3.681443e+003, 7.362014e-004
3.683371e+003, -1.899134e-004
3.685300e+003, -5.807221e-004
3.687228e+003, -2.006766e-003
3.689157e+003, -2.214150e-003
3.691085e+003, -8.658179e-004
3.693014e+003, 5.844366e-004
3.694942e+003, -1.745614e-004
3.696871e+003, -2.187504e-003
3.698799e+003, -1.746013e-003
3.700728e+003, -2.267657e-004
3.702656e+003, -1.031865e-003
3.704584e+003, -1.614057e-003
3.706513e+003, -1.252349e-003
3.708441e+003, -1.050361e-003
3.710370e+003, -8.649419e-004
3.712298e+003, -1.000121e-003
3.714227e+003, -4.412086e-004
3.716155e+003, 2.096228e-003
3.718084e+003, 2.798420e-003
3.720012e+003, 2.236572e-003
3.721941e+003, 6.449727e-004
3.723869e+003, 2.729312e-004
3.725798e+003, 1.141941e-003
3.727726e+003, 1.818266e-003
3.729655e+003, 1.811254e-003
3.731583e+003, -1.105749e-004
3.733511e+003, -1.702346e-003
3.735440e+003, -4.821612e-004
3.737368e+003, 1.127389e-003
3.739297e+003, 1.592325e-003
3.741225e+003, 1.713020e-003
3.743154e+003, 3.373747e-003
3.745082e+003, 2.461577e-003
3.747011e+003, 2.003348e-003
3.748939e+003, -1.590177e-003
3.750868e+003, -1.940588e-003
3.752796e+003, -1.283096e-003
3.754725e+003, 1.251266e-003
3.756653e+003, 2.289664e-003
3.758582e+003, 2.851499e-003
3.760510e+003, 7.138918e-004
3.762438e+003, -3.956454e-004
3.764367e+003, 8.412917e-004
3.766295e+003, 1.340845e-003
3.768224e+003, -6.124348e-004
3.770152e+003, -8.479435e-004
3.772081e+003, -5.135892e-004
3.774009e+003, -1.008356e-003
3.775938e+003, -8.427782e-004
3.777866e+003, 3.425682e-003
3.779795e+003, 4.065061e-003
3.781723e+003, 2.474506e-003
3.783652e+003, 8.804943e-004
3.785580e+003, 2.218036e-003
3.787509e+003, 2.298836e-003
3.789437e+003, -2.712059e-004
3.791365e+003, -5.805308e-004
3.793294e+003, 8.488613e-004
3.795222e+003, 2.400714e-003
3.797151e+003, 3.126573e-003
3.799079e+003, 3.624937e-003
3.801008e+003, 4.163574e-003
3.802936e+003, 1.604519e-003
3.804865e+003, 1.902829e-003
3.806793e+003, 8.342171e-004
3.808722e+003, 4.450164e-004
3.810650e+003, 1.281992e-003
3.812579e+003, 1.755902e-003
3.814507e+003, 1.665109e-003
3.816436e+003, -1.726194e-004
3.818364e+003, 5.695889e-004
3.820292e+003, 2.292342e-003
3.822221e+003, 1.341930e-003
3.824149e+003, 7.659322e-004
3.826078e+003, 1.132543e-003
3.828006e+003, 2.706142e-003
3.829935e+003, 1.455567e-003
3.831863e+003, 7.667519e-004
3.833792e+003, 1.207812e-003
3.835720e+003, 1.110167e-003
3.837649e+003, 2.288047e-003
3.839577e+003, 3.355140e-003
3.841506e+003, 1.464944e-003
3.843434e+003, 9.265819e-004
3.845363e+003, 1.379046e-004
3.847291e+003, 1.442066e-003
3.849219e+003, 2.510778e-003
3.851148e+003, 3.802496e-003
3.853076e+003, 1.477985e-003
3.855005e+003, 7.255931e-004
3.856933e+003, 2.119074e-003
3.858862e+003, 2.481085e-003
3.860790e+003, 1.979142e-003
3.862719e+003, 1.207703e-003
3.864647e+003, 1.961620e-003
3.866576e+003, 2.356470e-003
3.868504e+003, 1.642211e-003
3.870433e+003, -1.248423e-003
3.872361e+003, -1.679666e-003
3.874290e+003, -3.070821e-005
3.876218e+003, 6.635083e-004
3.878146e+003, 1.109325e-003
3.880075e+003, 1.040942e-003
3.882003e+003, 2.571936e-003
3.883932e+003, 1.498617e-003
3.885860e+003, -1.535272e-003
3.887789e+003, -2.044001e-003
3.889717e+003, 2.016647e-003
3.891646e+003, 8.554094e-004
3.893574e+003, -7.674700e-004
3.895503e+003, -9.833984e-004
3.897431e+003, -5.615912e-004
3.899360e+003, 1.002236e-003
3.901288e+003, 3.296345e-003
3.903217e+003, 2.439966e-003
3.905145e+003, 2.069869e-003
3.907073e+003, 5.584605e-004
3.909002e+003, 8.498518e-004
3.910930e+003, 1.481346e-003
3.912859e+003, 2.214509e-003
3.914787e+003, 2.324675e-003
3.916716e+003, 1.226967e-003
3.918644e+003, 9.490285e-005
3.920573e+003, 1.298310e-003
3.922501e+003, 1.644059e-003
3.924430e+003, 2.296801e-003
3.926358e+003, 2.141258e-003
3.928287e+003, 2.260740e-003
3.930215e+003, 2.474787e-003
3.932144e+003, 4.317691e-003
3.934072e+003, 4.040811e-003
3.936000e+003, 2.866622e-003
3.937929e+003, 1.151262e-003
3.939857e+003, 3.614280e-004
3.941786e+003, 3.756651e-004
3.943714e+003, 1.993502e-003
3.945643e+003, 1.890239e-003
3.947571e+003, 1.332401e-003
3.949500e+003, 6.178842e-005
3.951428e+003, 9.363582e-004
3.953357e+003, 1.483221e-003
3.955285e+003, 2.189849e-003
3.957214e+003, 3.131935e-003
3.959142e+003, 3.242761e-003
3.961071e+003, 2.721281e-003
3.962999e+003, 1.598546e-003
3.964927e+003, 2.937451e-004
3.966856e+003, 7.879505e-004
3.968784e+003, -3.124052e-004
3.970713e+003, 4.704445e-004
3.972641e+003, -8.912731e-004
3.974570e+003, -1.007008e-003
3.976498e+003, 1.181473e-003
3.978427e+003, 3.524340e-003
3.980355e+003, 3.361225e-003
3.982284e+003, 2.537323e-003
3.984212e+003, 1.666007e-003
3.986141e+003, 4.385117e-003
3.988069e+003, 4.507084e-003
3.989998e+003, 2.514461e-003
3.991926e+003, 5.870588e-004
3.993854e+003, 7.793775e-004
3.995783e+003, 7.228549e-004
3.997711e+003, 7.133568e-004
3.999640e+003, 7.159884e-004
##END=



