##NAMES=Sylvite
##RRUFFID=R050166
##IDEAL CHEMISTRY=KCl
##LOCALITY=Salton Sea, Imperial County, California, USA
##OWNER=RRUFF
##SOURCE=Marcus Origlieri
##DESCRIPTION=Pale blue octahedral crystals
##STATUS=The identification of this mineral has been confirmed by X-ray diffraction.
##URL=rruff.info/R050166
3.741225e+002, -7.849953e-003
3.760510e+002, -1.198784e-002
3.779795e+002, -7.176768e-003
3.799079e+002, -2.818993e-003
3.818364e+002, 1.849452e-003
3.837649e+002, 3.538068e-003
3.856933e+002, 3.972597e-003
3.876218e+002, 2.366449e-003
3.895503e+002, -8.673681e-004
3.914787e+002, -2.875774e-003
3.934072e+002, -2.210893e-003
3.953357e+002, 6.994983e-004
3.972641e+002, 1.068952e-003
3.991926e+002, -2.206609e-003
4.011211e+002, -2.119950e-003
4.030495e+002, 2.570063e-003
4.049780e+002, 4.209638e-003
4.069065e+002, 1.931157e-003
4.088349e+002, 5.993937e-004
4.107634e+002, 1.787922e-004
4.126919e+002, 8.630812e-004
4.146203e+002, 6.590371e-004
4.165488e+002, 1.398727e-003
4.184773e+002, 2.403043e-003
4.204057e+002, 1.225687e-003
4.223342e+002, 1.065612e-003
4.242627e+002, 2.062765e-003
4.261911e+002, 1.123799e-003
4.281196e+002, 7.547851e-004
4.300481e+002, 1.564430e-003
4.319765e+002, 2.334551e-003
4.339050e+002, 2.217147e-003
4.358335e+002, 2.184063e-003
4.377619e+002, 2.169753e-003
4.396904e+002, 1.363990e-003
4.416189e+002, 1.193808e-003
4.435473e+002, 1.338510e-003
4.454758e+002, 1.297754e-003
4.474043e+002, 1.119236e-003
4.493327e+002, 1.225986e-003
4.512612e+002, 1.368805e-003
4.531897e+002, 1.820131e-003
4.551181e+002, 1.917116e-003
4.570466e+002, 1.517653e-003
4.589751e+002, 2.272264e-003
4.609035e+002, 2.235878e-003
4.628320e+002, 1.263497e-003
4.647605e+002, 1.180204e-003
4.666889e+002, 1.476807e-003
4.686174e+002, 1.745421e-003
4.705459e+002, 1.877155e-003
4.724743e+002, 1.945306e-003
4.744028e+002, 1.846590e-003
4.763313e+002, 2.062961e-003
4.782597e+002, 2.222572e-003
4.801882e+002, 2.436339e-003
4.821167e+002, 2.084387e-003
4.840451e+002, 2.074987e-003
4.859736e+002, 2.534844e-003
4.879021e+002, 2.015094e-003
4.898305e+002, 1.706193e-003
4.917590e+002, 1.861116e-003
4.936875e+002, 1.976673e-003
4.956159e+002, 1.710735e-003
4.975444e+002, 1.485108e-003
4.994729e+002, 2.005365e-003
5.014013e+002, 2.283673e-003
5.033298e+002, 2.562577e-003
5.052583e+002, 2.445087e-003
5.071867e+002, 1.969672e-003
5.091152e+002, 2.136258e-003
5.110437e+002, 2.476116e-003
5.129721e+002, 2.404864e-003
5.149006e+002, 2.669687e-003
5.168290e+002, 3.036750e-003
5.187575e+002, 2.757919e-003
5.206860e+002, 2.441203e-003
5.226144e+002, 2.231353e-003
5.245429e+002, 2.372951e-003
5.264714e+002, 2.347922e-003
5.283998e+002, 2.503032e-003
5.303283e+002, 2.694255e-003
5.322568e+002, 2.348174e-003
5.341852e+002, 1.982567e-003
5.361137e+002, 2.448738e-003
5.380422e+002, 2.995095e-003
5.399706e+002, 2.781132e-003
5.418991e+002, 2.468885e-003
5.438276e+002, 2.424051e-003
5.457560e+002, 2.538434e-003
5.476845e+002, 2.683855e-003
5.496130e+002, 2.715683e-003
5.515414e+002, 2.803245e-003
5.534699e+002, 2.876216e-003
5.553984e+002, 2.902162e-003
5.573268e+002, 2.823216e-003
5.592553e+002, 2.881452e-003
5.611838e+002, 3.134747e-003
5.631122e+002, 2.846142e-003
5.650407e+002, 2.481365e-003
5.669692e+002, 2.540830e-003
5.688976e+002, 2.764646e-003
5.708261e+002, 2.772411e-003
5.727546e+002, 2.900829e-003
5.746830e+002, 3.170577e-003
5.766115e+002, 2.931110e-003
5.785400e+002, 2.580560e-003
5.804684e+002, 2.754542e-003
5.823969e+002, 2.819710e-003
5.843254e+002, 2.746479e-003
5.862538e+002, 2.854628e-003
5.881823e+002, 2.854756e-003
5.901108e+002, 2.910744e-003
5.920392e+002, 3.119972e-003
5.939677e+002, 2.990129e-003
5.958962e+002, 2.809808e-003
5.978246e+002, 3.000508e-003
5.997531e+002, 3.122930e-003
6.016816e+002, 3.012040e-003
6.036100e+002, 3.136394e-003
6.055385e+002, 3.232138e-003
6.074670e+002, 3.213539e-003
6.093954e+002, 3.250803e-003
6.113239e+002, 3.168686e-003
6.132524e+002, 3.050787e-003
6.151808e+002, 3.077020e-003
6.171093e+002, 3.006816e-003
6.190378e+002, 3.080875e-003
6.209662e+002, 3.240904e-003
6.228947e+002, 3.315877e-003
6.248232e+002, 3.404329e-003
6.267516e+002, 3.521831e-003
6.286801e+002, 3.500891e-003
6.306086e+002, 3.517556e-003
6.325370e+002, 3.564193e-003
6.344655e+002, 3.532405e-003
6.363940e+002, 3.429026e-003
6.383224e+002, 3.341999e-003
6.402509e+002, 3.411621e-003
6.421794e+002, 3.605333e-003
6.441078e+002, 3.543959e-003
6.460363e+002, 3.610637e-003
6.479648e+002, 3.572922e-003
6.498932e+002, 3.538110e-003
6.518217e+002, 3.651788e-003
6.537502e+002, 3.750551e-003
6.556786e+002, 3.627712e-003
6.576071e+002, 3.713535e-003
6.595356e+002, 3.783742e-003
6.614641e+002, 3.816037e-003
6.633925e+002, 3.859953e-003
6.653210e+002, 3.745997e-003
6.672495e+002, 3.738647e-003
6.691779e+002, 3.869348e-003
6.711064e+002, 4.000588e-003
6.730349e+002, 4.186267e-003
6.749633e+002, 4.098933e-003
6.768918e+002, 3.920611e-003
6.788203e+002, 3.904748e-003
6.807487e+002, 3.938859e-003
6.826772e+002, 3.861248e-003
6.846057e+002, 3.975428e-003
6.865341e+002, 3.988125e-003
6.884626e+002, 3.874998e-003
6.903911e+002, 3.913731e-003
6.923195e+002, 3.992604e-003
6.942480e+002, 3.926693e-003
6.961765e+002, 3.905539e-003
6.981049e+002, 3.857034e-003
7.000334e+002, 3.896797e-003
7.019619e+002, 4.033599e-003
7.038903e+002, 3.941609e-003
7.058188e+002, 3.808216e-003
7.077473e+002, 3.793193e-003
7.096757e+002, 3.929133e-003
7.116042e+002, 4.032195e-003
7.135327e+002, 3.967345e-003
7.154611e+002, 3.890269e-003
7.173896e+002, 3.998830e-003
7.193181e+002, 3.978366e-003
7.212465e+002, 3.784791e-003
7.231750e+002, 3.592900e-003
7.251035e+002, 3.715263e-003
7.270319e+002, 3.925988e-003
7.289604e+002, 3.959121e-003
7.308889e+002, 3.962484e-003
7.328173e+002, 4.039870e-003
7.347458e+002, 3.995153e-003
7.366743e+002, 3.914324e-003
7.386027e+002, 3.859099e-003
7.405312e+002, 3.769509e-003
7.424597e+002, 3.826099e-003
7.443881e+002, 3.898714e-003
7.463166e+002, 3.982632e-003
7.482451e+002, 4.136395e-003
7.501735e+002, 4.048436e-003
7.521020e+002, 3.846259e-003
7.540305e+002, 3.918114e-003
7.559589e+002, 4.047958e-003
7.578874e+002, 4.122841e-003
7.598159e+002, 4.110796e-003
7.617443e+002, 3.966013e-003
7.636728e+002, 3.954364e-003
7.656013e+002, 4.141300e-003
7.675297e+002, 4.216757e-003
7.694582e+002, 4.269079e-003
7.713867e+002, 4.349579e-003
7.733151e+002, 4.336469e-003
7.752436e+002, 4.293815e-003
7.771721e+002, 4.399629e-003
7.791005e+002, 4.443082e-003
7.810290e+002, 4.306961e-003
7.829575e+002, 4.242618e-003
7.848859e+002, 4.260889e-003
7.868144e+002, 4.259004e-003
7.887429e+002, 4.540573e-003
7.906713e+002, 4.631460e-003
7.925998e+002, 4.752496e-003
7.945283e+002, 4.730802e-003
7.964567e+002, 4.577706e-003
7.983852e+002, 4.500475e-003
8.003137e+002, 4.624649e-003
8.022421e+002, 4.529757e-003
8.041706e+002, 4.459673e-003
8.060991e+002, 4.490333e-003
8.080275e+002, 4.554015e-003
8.099560e+002, 4.547130e-003
8.118845e+002, 4.757054e-003
8.138129e+002, 4.902794e-003
8.157414e+002, 4.787791e-003
8.176699e+002, 4.632266e-003
8.195983e+002, 4.513518e-003
8.215268e+002, 4.537012e-003
8.234553e+002, 4.679416e-003
8.253837e+002, 4.667406e-003
8.273122e+002, 4.717970e-003
8.292407e+002, 4.651304e-003
8.311691e+002, 4.666055e-003
8.330976e+002, 4.603262e-003
8.350261e+002, 4.635187e-003
8.369545e+002, 4.677127e-003
8.388830e+002, 4.679626e-003
8.408115e+002, 4.699274e-003
8.427399e+002, 4.638724e-003
8.446684e+002, 4.635988e-003
8.465969e+002, 4.692483e-003
8.485253e+002, 4.704169e-003
8.504538e+002, 4.712120e-003
8.523823e+002, 4.746435e-003
8.543107e+002, 4.896833e-003
8.562392e+002, 5.041357e-003
8.581677e+002, 4.961239e-003
8.600961e+002, 4.733046e-003
8.620246e+002, 4.741055e-003
8.639531e+002, 4.857871e-003
8.658815e+002, 4.854328e-003
8.678100e+002, 4.861265e-003
8.697385e+002, 4.942311e-003
8.716669e+002, 4.919092e-003
8.735954e+002, 5.023091e-003
8.755239e+002, 5.089537e-003
8.774523e+002, 5.033602e-003
8.793808e+002, 4.994357e-003
8.813093e+002, 5.041406e-003
8.832377e+002, 5.118363e-003
8.851662e+002, 5.243335e-003
8.870947e+002, 5.340672e-003
8.890231e+002, 5.450741e-003
8.909516e+002, 5.335009e-003
8.928801e+002, 5.159280e-003
8.948085e+002, 5.211708e-003
8.967370e+002, 5.319527e-003
8.986655e+002, 5.250559e-003
9.005939e+002, 5.200163e-003
9.025224e+002, 5.146240e-003
9.044509e+002, 5.065183e-003
9.063793e+002, 5.125573e-003
9.083078e+002, 5.212224e-003
9.102363e+002, 5.349069e-003
9.121647e+002, 5.306181e-003
9.140932e+002, 5.324673e-003
9.160217e+002, 5.442940e-003
9.179501e+002, 5.401398e-003
9.198786e+002, 5.376260e-003
9.218071e+002, 5.372826e-003
9.237355e+002, 5.336577e-003
9.256640e+002, 5.418031e-003
9.275925e+002, 5.451719e-003
9.295209e+002, 5.400308e-003
9.314494e+002, 5.397750e-003
9.333779e+002, 5.363608e-003
9.353063e+002, 5.543171e-003
9.372348e+002, 5.743972e-003
9.391633e+002, 5.692800e-003
9.410917e+002, 5.559662e-003
9.430202e+002, 5.566842e-003
9.449487e+002, 5.553218e-003
9.468771e+002, 5.536344e-003
9.488056e+002, 5.598860e-003
9.507341e+002, 5.693560e-003
9.526625e+002, 5.597014e-003
9.545910e+002, 5.552082e-003
9.565195e+002, 5.597154e-003
9.584479e+002, 5.673432e-003
9.603764e+002, 5.669493e-003
9.623049e+002, 5.555037e-003
9.642333e+002, 5.513173e-003
9.661618e+002, 5.556929e-003
9.680903e+002, 5.605988e-003
9.700187e+002, 5.730978e-003
9.719472e+002, 5.827127e-003
9.738757e+002, 5.882892e-003
9.758041e+002, 5.977660e-003
9.777326e+002, 5.885955e-003
9.796611e+002, 5.822365e-003
9.815895e+002, 5.974344e-003
9.835180e+002, 6.100541e-003
9.854465e+002, 6.141254e-003
9.873749e+002, 5.942708e-003
9.893034e+002, 5.888444e-003
9.912319e+002, 6.073467e-003
9.931603e+002, 6.180846e-003
9.950888e+002, 6.131845e-003
9.970173e+002, 6.126238e-003
9.989457e+002, 6.043159e-003
1.000874e+003, 5.964645e-003
1.002803e+003, 6.028354e-003
1.004731e+003, 6.182449e-003
1.006660e+003, 6.226456e-003
1.008588e+003, 6.247266e-003
1.010517e+003, 6.370795e-003
1.012445e+003, 6.646103e-003
1.014373e+003, 6.804352e-003
1.016302e+003, 6.767429e-003
1.018230e+003, 6.821966e-003
1.020159e+003, 6.841375e-003
1.022087e+003, 6.706201e-003
1.024016e+003, 6.575616e-003
1.025944e+003, 6.389978e-003
1.027873e+003, 6.413701e-003
1.029801e+003, 6.401920e-003
1.031730e+003, 6.337415e-003
1.033658e+003, 6.263190e-003
1.035587e+003, 6.335040e-003
1.037515e+003, 6.330207e-003
1.039443e+003, 6.249877e-003
1.041372e+003, 6.209102e-003
1.043300e+003, 6.223018e-003
1.045229e+003, 6.095711e-003
1.047157e+003, 6.222843e-003
1.049086e+003, 6.437786e-003
1.051014e+003, 6.438001e-003
1.052943e+003, 6.349016e-003
1.054871e+003, 6.309577e-003
1.056800e+003, 6.156769e-003
1.058728e+003, 6.098004e-003
1.060657e+003, 6.255931e-003
1.062585e+003, 6.408584e-003
1.064514e+003, 6.336176e-003
1.066442e+003, 6.171152e-003
1.068370e+003, 6.089190e-003
1.070299e+003, 6.186102e-003
1.072227e+003, 6.268036e-003
1.074156e+003, 6.169479e-003
1.076084e+003, 6.094321e-003
1.078013e+003, 6.139007e-003
1.079941e+003, 6.241325e-003
1.081870e+003, 6.198128e-003
1.083798e+003, 6.077473e-003
1.085727e+003, 6.061101e-003
1.087655e+003, 6.128819e-003
1.089584e+003, 6.282931e-003
1.091512e+003, 6.211853e-003
1.093441e+003, 6.092385e-003
1.095369e+003, 6.116292e-003
1.097297e+003, 6.111849e-003
1.099226e+003, 6.030296e-003
1.101154e+003, 6.033707e-003
1.103083e+003, 6.079253e-003
1.105011e+003, 6.162084e-003
1.106940e+003, 6.079485e-003
1.108868e+003, 6.008187e-003
1.110797e+003, 5.965458e-003
1.112725e+003, 5.988880e-003
1.114654e+003, 5.976936e-003
1.116582e+003, 5.868142e-003
1.118511e+003, 5.662481e-003
1.120439e+003, 5.634122e-003
1.122368e+003, 5.702889e-003
1.124296e+003, 5.761161e-003
1.126224e+003, 5.758620e-003
1.128153e+003, 5.696170e-003
1.130081e+003, 5.732159e-003
1.132010e+003, 5.728963e-003
1.133938e+003, 5.707668e-003
1.135867e+003, 5.710978e-003
1.137795e+003, 5.676092e-003
1.139724e+003, 5.641746e-003
1.141652e+003, 5.592143e-003
1.143581e+003, 5.558020e-003
1.145509e+003, 5.483419e-003
1.147438e+003, 5.335069e-003
1.149366e+003, 5.196128e-003
1.151295e+003, 5.028837e-003
1.153223e+003, 4.790685e-003
1.155151e+003, 4.659061e-003
1.157080e+003, 4.570571e-003
1.159008e+003, 4.393950e-003
1.160937e+003, 4.320207e-003
1.162865e+003, 4.384980e-003
1.164794e+003, 4.405021e-003
1.166722e+003, 4.331521e-003
1.168651e+003, 4.360707e-003
1.170579e+003, 4.486297e-003
1.172508e+003, 4.640256e-003
1.174436e+003, 4.717636e-003
1.176365e+003, 4.660515e-003
1.178293e+003, 4.828655e-003
1.180222e+003, 5.015653e-003
1.182150e+003, 5.024165e-003
1.184078e+003, 5.106652e-003
1.186007e+003, 5.275855e-003
1.187935e+003, 5.462697e-003
1.189864e+003, 5.623634e-003
1.191792e+003, 5.538264e-003
1.193721e+003, 5.424867e-003
1.195649e+003, 5.491723e-003
1.197578e+003, 5.635101e-003
1.199506e+003, 5.703281e-003
1.201435e+003, 5.792144e-003
1.203363e+003, 5.789991e-003
1.205292e+003, 5.847932e-003
1.207220e+003, 5.961497e-003
1.209149e+003, 6.019284e-003
1.211077e+003, 5.903150e-003
1.213005e+003, 5.947872e-003
1.214934e+003, 6.024956e-003
1.216862e+003, 5.979057e-003
1.218791e+003, 5.953614e-003
1.220719e+003, 5.880862e-003
1.222648e+003, 5.847635e-003
1.224576e+003, 5.879873e-003
1.226505e+003, 5.872122e-003
1.228433e+003, 5.944118e-003
1.230362e+003, 5.951965e-003
1.232290e+003, 5.893875e-003
1.234219e+003, 5.914014e-003
1.236147e+003, 5.977261e-003
1.238076e+003, 6.033172e-003
1.240004e+003, 6.054661e-003
1.241932e+003, 5.978065e-003
1.243861e+003, 5.995099e-003
1.245789e+003, 5.937574e-003
1.247718e+003, 5.930381e-003
1.249646e+003, 6.027212e-003
1.251575e+003, 6.064064e-003
1.253503e+003, 6.069795e-003
1.255432e+003, 6.142149e-003
1.257360e+003, 6.217568e-003
1.259289e+003, 6.263611e-003
1.261217e+003, 6.379778e-003
1.263146e+003, 6.399695e-003
1.265074e+003, 6.330379e-003
1.267003e+003, 6.316375e-003
1.268931e+003, 6.361843e-003
1.270859e+003, 6.411682e-003
1.272788e+003, 6.489426e-003
1.274716e+003, 6.533148e-003
1.276645e+003, 6.567430e-003
1.278573e+003, 6.671156e-003
1.280502e+003, 6.743099e-003
1.282430e+003, 6.801600e-003
1.284359e+003, 6.889075e-003
1.286287e+003, 6.910680e-003
1.288216e+003, 6.873291e-003
1.290144e+003, 6.858307e-003
1.292073e+003, 6.918097e-003
1.294001e+003, 7.060136e-003
1.295930e+003, 7.037481e-003
1.297858e+003, 6.858524e-003
1.299786e+003, 6.837633e-003
1.301715e+003, 7.023698e-003
1.303643e+003, 7.060651e-003
1.305572e+003, 6.952362e-003
1.307500e+003, 7.042983e-003
1.309429e+003, 7.260354e-003
1.311357e+003, 7.384206e-003
1.313286e+003, 7.406130e-003
1.315214e+003, 7.370784e-003
1.317143e+003, 7.432390e-003
1.319071e+003, 7.425074e-003
1.321000e+003, 7.285411e-003
1.322928e+003, 7.295870e-003
1.324857e+003, 7.317086e-003
1.326785e+003, 7.347506e-003
1.328714e+003, 7.483811e-003
1.330642e+003, 7.428617e-003
1.332570e+003, 7.380350e-003
1.334499e+003, 7.431696e-003
1.336427e+003, 7.447773e-003
1.338356e+003, 7.544320e-003
1.340284e+003, 7.571071e-003
1.342213e+003, 7.440104e-003
1.344141e+003, 7.593400e-003
1.346070e+003, 7.749762e-003
1.347998e+003, 7.710222e-003
1.349927e+003, 7.602431e-003
1.351855e+003, 7.600496e-003
1.353784e+003, 7.727405e-003
1.355712e+003, 7.803502e-003
1.357641e+003, 7.752565e-003
1.359569e+003, 7.742079e-003
1.361497e+003, 7.730939e-003
1.363426e+003, 7.752783e-003
1.365354e+003, 7.717547e-003
1.367283e+003, 7.861335e-003
1.369211e+003, 7.995550e-003
1.371140e+003, 8.082976e-003
1.373068e+003, 8.030522e-003
1.374997e+003, 8.151065e-003
1.376925e+003, 8.315604e-003
1.378854e+003, 8.536035e-003
1.380782e+003, 8.471034e-003
1.382711e+003, 8.458053e-003
1.384639e+003, 8.647527e-003
1.386568e+003, 8.972391e-003
1.388496e+003, 9.202705e-003
1.390424e+003, 9.524212e-003
1.392353e+003, 9.843076e-003
1.394281e+003, 1.026203e-002
1.396210e+003, 1.069749e-002
1.398138e+003, 1.104515e-002
1.400067e+003, 1.135075e-002
1.401995e+003, 1.180282e-002
1.403924e+003, 1.223951e-002
1.405852e+003, 1.245216e-002
1.407781e+003, 1.247605e-002
1.409709e+003, 1.232650e-002
1.411638e+003, 1.207240e-002
1.413566e+003, 1.170595e-002
1.415495e+003, 1.135389e-002
1.417423e+003, 1.108846e-002
1.419351e+003, 1.076165e-002
1.421280e+003, 1.053571e-002
1.423208e+003, 1.019341e-002
1.425137e+003, 9.836827e-003
1.427065e+003, 9.685280e-003
1.428994e+003, 9.596801e-003
1.430922e+003, 9.358743e-003
1.432851e+003, 9.237577e-003
1.434779e+003, 9.103248e-003
1.436708e+003, 9.024484e-003
1.438636e+003, 8.952308e-003
1.440565e+003, 8.820855e-003
1.442493e+003, 8.712119e-003
1.444422e+003, 8.568005e-003
1.446350e+003, 8.466791e-003
1.448278e+003, 8.422100e-003
1.450207e+003, 8.147468e-003
1.452135e+003, 8.007221e-003
1.454064e+003, 8.136339e-003
1.455992e+003, 8.235344e-003
1.457921e+003, 8.125087e-003
1.459849e+003, 8.051325e-003
1.461778e+003, 8.049894e-003
1.463706e+003, 8.099956e-003
1.465635e+003, 8.128040e-003
1.467563e+003, 8.059494e-003
1.469492e+003, 8.180252e-003
1.471420e+003, 8.335844e-003
1.473349e+003, 8.357502e-003
1.475277e+003, 8.428369e-003
1.477205e+003, 8.485759e-003
1.479134e+003, 8.531651e-003
1.481062e+003, 8.650398e-003
1.482991e+003, 8.707880e-003
1.484919e+003, 8.653776e-003
1.486848e+003, 8.669958e-003
1.488776e+003, 8.724600e-003
1.490705e+003, 8.795881e-003
1.492633e+003, 8.885222e-003
1.494562e+003, 8.911161e-003
1.496490e+003, 8.899587e-003
1.498419e+003, 8.808937e-003
1.500347e+003, 8.736884e-003
1.502276e+003, 8.828634e-003
1.504204e+003, 9.015495e-003
1.506132e+003, 9.230235e-003
1.508061e+003, 9.114965e-003
1.509989e+003, 9.012988e-003
1.511918e+003, 9.061526e-003
1.513846e+003, 9.115702e-003
1.515775e+003, 9.225709e-003
1.517703e+003, 9.213682e-003
1.519632e+003, 9.169737e-003
1.521560e+003, 9.184696e-003
1.523489e+003, 9.232884e-003
1.525417e+003, 9.330735e-003
1.527346e+003, 9.256978e-003
1.529274e+003, 9.249705e-003
1.531203e+003, 9.269344e-003
1.533131e+003, 9.243106e-003
1.535059e+003, 9.191198e-003
1.536988e+003, 9.278908e-003
1.538916e+003, 9.566139e-003
1.540845e+003, 9.715697e-003
1.542773e+003, 9.532661e-003
1.544702e+003, 9.358901e-003
1.546630e+003, 9.445316e-003
1.548559e+003, 9.510068e-003
1.550487e+003, 9.545203e-003
1.552416e+003, 9.637165e-003
1.554344e+003, 9.523764e-003
1.556273e+003, 9.682031e-003
1.558201e+003, 9.964911e-003
1.560130e+003, 9.955211e-003
1.562058e+003, 9.717709e-003
1.563986e+003, 9.604183e-003
1.565915e+003, 9.652179e-003
1.567843e+003, 9.722820e-003
1.569772e+003, 9.820995e-003
1.571700e+003, 9.834277e-003
1.573629e+003, 9.793871e-003
1.575557e+003, 9.854649e-003
1.577486e+003, 9.898210e-003
1.579414e+003, 9.948858e-003
1.581343e+003, 1.000683e-002
1.583271e+003, 9.914872e-003
1.585200e+003, 9.770569e-003
1.587128e+003, 9.703464e-003
1.589057e+003, 9.676435e-003
1.590985e+003, 9.725119e-003
1.592913e+003, 9.795845e-003
1.594842e+003, 9.980684e-003
1.596770e+003, 1.003993e-002
1.598699e+003, 1.012360e-002
1.600627e+003, 1.000554e-002
1.602556e+003, 9.725628e-003
1.604484e+003, 9.677332e-003
1.606413e+003, 9.850517e-003
1.608341e+003, 1.000791e-002
1.610270e+003, 1.010657e-002
1.612198e+003, 1.023412e-002
1.614127e+003, 1.032419e-002
1.616055e+003, 1.038228e-002
1.617984e+003, 1.039951e-002
1.619912e+003, 1.039023e-002
1.621840e+003, 1.039993e-002
1.623769e+003, 1.032695e-002
1.625697e+003, 1.035715e-002
1.627626e+003, 1.047747e-002
1.629554e+003, 1.054211e-002
1.631483e+003, 1.047832e-002
1.633411e+003, 1.053696e-002
1.635340e+003, 1.063097e-002
1.637268e+003, 1.055061e-002
1.639197e+003, 1.035018e-002
1.641125e+003, 1.022614e-002
1.643054e+003, 1.038353e-002
1.644982e+003, 1.054290e-002
1.646911e+003, 1.043127e-002
1.648839e+003, 1.038600e-002
1.650767e+003, 1.053285e-002
1.652696e+003, 1.077092e-002
1.654624e+003, 1.072567e-002
1.656553e+003, 1.055556e-002
1.658481e+003, 1.049837e-002
1.660410e+003, 1.037823e-002
1.662338e+003, 1.026088e-002
1.664267e+003, 1.029762e-002
1.666195e+003, 1.025524e-002
1.668124e+003, 1.029267e-002
1.670052e+003, 1.030872e-002
1.671981e+003, 1.034091e-002
1.673909e+003, 1.040342e-002
1.675838e+003, 1.027353e-002
1.677766e+003, 1.007423e-002
1.679694e+003, 1.007656e-002
1.681623e+003, 1.002226e-002
1.683551e+003, 1.001368e-002
1.685480e+003, 1.001926e-002
1.687408e+003, 9.999944e-003
1.689337e+003, 9.960985e-003
1.691265e+003, 1.006154e-002
1.693194e+003, 1.014451e-002
1.695122e+003, 1.014331e-002
1.697051e+003, 1.009585e-002
1.698979e+003, 1.010715e-002
1.700908e+003, 9.983052e-003
1.702836e+003, 9.718483e-003
1.704765e+003, 9.603587e-003
1.706693e+003, 9.584376e-003
1.708621e+003, 9.469561e-003
1.710550e+003, 9.462111e-003
1.712478e+003, 9.548295e-003
1.714407e+003, 9.609396e-003
1.716335e+003, 9.635644e-003
1.718264e+003, 9.394882e-003
1.720192e+003, 8.805909e-003
1.722121e+003, 8.324944e-003
1.724049e+003, 7.788710e-003
1.725978e+003, 7.111808e-003
1.727906e+003, 6.544940e-003
1.729835e+003, 5.919803e-003
1.731763e+003, 5.401393e-003
1.733692e+003, 5.108919e-003
1.735620e+003, 4.853345e-003
1.737548e+003, 5.160802e-003
1.739477e+003, 5.640563e-003
1.741405e+003, 6.135750e-003
1.743334e+003, 6.863012e-003
1.745262e+003, 7.586597e-003
1.747191e+003, 8.085207e-003
1.749119e+003, 8.467530e-003
1.751048e+003, 8.792868e-003
1.752976e+003, 9.141547e-003
1.754905e+003, 9.134302e-003
1.756833e+003, 9.331411e-003
1.758762e+003, 9.537180e-003
1.760690e+003, 9.521528e-003
1.762619e+003, 9.600496e-003
1.764547e+003, 9.564940e-003
1.766475e+003, 9.616051e-003
1.768404e+003, 9.754957e-003
1.770332e+003, 9.694546e-003
1.772261e+003, 9.754584e-003
1.774189e+003, 9.737931e-003
1.776118e+003, 9.799117e-003
1.778046e+003, 9.815425e-003
1.779975e+003, 1.002853e-002
1.781903e+003, 1.015981e-002
1.783832e+003, 1.007990e-002
1.785760e+003, 1.010584e-002
1.787689e+003, 1.011226e-002
1.789617e+003, 1.004423e-002
1.791546e+003, 9.887781e-003
1.793474e+003, 9.657842e-003
1.795402e+003, 9.900032e-003
1.797331e+003, 1.009748e-002
1.799259e+003, 1.015500e-002
1.801188e+003, 1.008287e-002
1.803116e+003, 1.002057e-002
1.805045e+003, 9.946053e-003
1.806973e+003, 9.914234e-003
1.808902e+003, 1.003438e-002
1.810830e+003, 1.022201e-002
1.812759e+003, 1.022571e-002
1.814687e+003, 1.011556e-002
1.816616e+003, 1.001658e-002
1.818544e+003, 1.011778e-002
1.820473e+003, 1.040160e-002
1.822401e+003, 1.040699e-002
1.824329e+003, 1.034518e-002
1.826258e+003, 1.018307e-002
1.828186e+003, 1.020155e-002
1.830115e+003, 1.039347e-002
1.832043e+003, 1.024447e-002
1.833972e+003, 1.019715e-002
1.835900e+003, 1.036587e-002
1.837829e+003, 1.042105e-002
1.839757e+003, 1.025364e-002
1.841686e+003, 1.035075e-002
1.843614e+003, 1.059943e-002
1.845543e+003, 1.083393e-002
1.847471e+003, 1.061429e-002
1.849400e+003, 1.042433e-002
1.851328e+003, 1.039817e-002
1.853256e+003, 1.050635e-002
1.855185e+003, 1.050390e-002
1.857113e+003, 1.022317e-002
1.859042e+003, 9.991716e-003
1.860970e+003, 1.047425e-002
1.862899e+003, 1.096948e-002
1.864827e+003, 1.114082e-002
1.866756e+003, 1.142317e-002
1.868684e+003, 1.132809e-002
1.870613e+003, 1.083003e-002
1.872541e+003, 1.057564e-002
1.874470e+003, 1.028752e-002
1.876398e+003, 1.049665e-002
1.878327e+003, 1.064161e-002
1.880255e+003, 1.088232e-002
1.882183e+003, 1.110232e-002
1.884112e+003, 1.100536e-002
1.886040e+003, 1.089781e-002
1.887969e+003, 1.100703e-002
1.889897e+003, 1.100704e-002
1.891826e+003, 1.083215e-002
1.893754e+003, 1.032899e-002
1.895683e+003, 9.946836e-003
1.897611e+003, 1.054883e-002
1.899540e+003, 1.110103e-002
1.901468e+003, 1.067901e-002
1.903397e+003, 1.033075e-002
1.905325e+003, 1.058653e-002
1.907254e+003, 1.092260e-002
1.909182e+003, 1.112122e-002
1.911110e+003, 1.096740e-002
1.913039e+003, 1.060852e-002
1.914967e+003, 1.047168e-002
1.916896e+003, 1.061203e-002
1.918824e+003, 1.066199e-002
1.920753e+003, 1.027165e-002
1.922681e+003, 1.016240e-002
1.924610e+003, 1.021629e-002
1.926538e+003, 1.048970e-002
1.928467e+003, 1.081964e-002
1.930395e+003, 1.059886e-002
1.932324e+003, 1.070554e-002
1.934252e+003, 1.125322e-002
1.936181e+003, 1.165387e-002
1.938109e+003, 1.151416e-002
1.940037e+003, 1.078220e-002
1.941966e+003, 1.029448e-002
1.943894e+003, 1.075562e-002
1.945823e+003, 1.105915e-002
1.947751e+003, 1.070369e-002
1.949680e+003, 1.107629e-002
1.951608e+003, 1.087107e-002
1.953537e+003, 1.066541e-002
1.955465e+003, 1.050451e-002
1.957394e+003, 1.056491e-002
1.959322e+003, 1.086558e-002
1.961251e+003, 1.094953e-002
1.963179e+003, 1.010528e-002
1.965108e+003, 1.054899e-002
1.967036e+003, 1.123063e-002
1.968964e+003, 1.167280e-002
1.970893e+003, 1.100429e-002
1.972821e+003, 1.062224e-002
1.974750e+003, 1.100647e-002
1.976678e+003, 1.157175e-002
1.978607e+003, 1.233969e-002
1.980535e+003, 1.256418e-002
1.982464e+003, 1.183627e-002
1.984392e+003, 1.196899e-002
1.986321e+003, 1.265611e-002
1.988249e+003, 1.253310e-002
1.990178e+003, 1.168546e-002
1.992106e+003, 1.061387e-002
1.994035e+003, 1.023476e-002
1.995963e+003, 1.096435e-002
1.997891e+003, 1.079000e-002
1.999820e+003, 1.105372e-002
2.001748e+003, 1.138721e-002
2.003677e+003, 9.670312e-003
2.005605e+003, 8.697292e-003
2.007534e+003, 9.857499e-003
2.009462e+003, 1.042707e-002
2.011391e+003, 1.071291e-002
2.013319e+003, 1.091540e-002
2.015248e+003, 1.097852e-002
2.017176e+003, 1.085875e-002
2.019105e+003, 1.087103e-002
2.021033e+003, 1.088820e-002
2.022962e+003, 1.133480e-002
2.024890e+003, 1.152457e-002
2.026818e+003, 1.091719e-002
2.028747e+003, 1.069280e-002
2.030675e+003, 1.082475e-002
2.032604e+003, 1.134012e-002
2.034532e+003, 1.196141e-002
2.036461e+003, 1.139683e-002
2.038389e+003, 1.167428e-002
2.040318e+003, 1.189092e-002
2.042246e+003, 1.135415e-002
2.044175e+003, 1.089801e-002
2.046103e+003, 1.118204e-002
2.048031e+003, 1.082687e-002
2.049960e+003, 1.082152e-002
2.051888e+003, 1.080321e-002
2.053817e+003, 1.078981e-002
2.055745e+003, 1.110293e-002
2.057674e+003, 1.111638e-002
2.059602e+003, 1.107270e-002
2.061531e+003, 1.093301e-002
2.063459e+003, 1.091237e-002
2.065388e+003, 1.123705e-002
2.067316e+003, 1.131191e-002
2.069245e+003, 1.155857e-002
2.071173e+003, 1.128215e-002
2.073102e+003, 1.153224e-002
2.075030e+003, 1.178786e-002
2.076958e+003, 1.183249e-002
2.078887e+003, 1.220381e-002
2.080815e+003, 1.250751e-002
2.082744e+003, 1.203251e-002
2.084672e+003, 1.214564e-002
2.086601e+003, 1.183538e-002
2.088529e+003, 1.161091e-002
2.090458e+003, 1.180252e-002
2.092386e+003, 1.211161e-002
2.094315e+003, 1.202721e-002
2.096243e+003, 1.191111e-002
2.098172e+003, 1.155707e-002
2.100100e+003, 1.136264e-002
2.102029e+003, 1.201490e-002
2.103957e+003, 1.236858e-002
2.105885e+003, 1.199361e-002
2.107814e+003, 1.217557e-002
2.109742e+003, 1.220492e-002
2.111671e+003, 1.187770e-002
2.113599e+003, 1.187932e-002
2.115528e+003, 1.250140e-002
2.117456e+003, 1.241437e-002
2.119385e+003, 1.185379e-002
2.121313e+003, 1.177238e-002
2.123242e+003, 1.147267e-002
2.125170e+003, 1.126310e-002
2.127099e+003, 1.102393e-002
2.129027e+003, 1.081314e-002
2.130956e+003, 1.106000e-002
2.132884e+003, 1.121084e-002
2.134813e+003, 1.103606e-002
2.136741e+003, 1.116920e-002
2.138669e+003, 1.142639e-002
2.140598e+003, 1.119876e-002
2.142526e+003, 1.140028e-002
2.144455e+003, 1.082177e-002
2.146383e+003, 1.069998e-002
2.148312e+003, 1.107761e-002
2.150240e+003, 1.062502e-002
2.152169e+003, 1.133848e-002
2.154097e+003, 1.220282e-002
2.156026e+003, 1.151008e-002
2.157954e+003, 1.228987e-002
2.159883e+003, 1.403116e-002
2.161811e+003, 1.312866e-002
2.163740e+003, 1.249165e-002
2.165668e+003, 1.396430e-002
2.167596e+003, 1.369139e-002
2.169525e+003, 1.274828e-002
2.171453e+003, 1.286748e-002
2.173382e+003, 1.355076e-002
2.175310e+003, 1.374370e-002
2.177239e+003, 1.337233e-002
2.179167e+003, 1.253820e-002
2.181096e+003, 1.245952e-002
2.183024e+003, 1.311094e-002
2.184953e+003, 1.301888e-002
2.186881e+003, 1.203263e-002
2.188810e+003, 1.133759e-002
2.190738e+003, 1.203298e-002
2.192667e+003, 1.265077e-002
2.194595e+003, 1.256507e-002
2.196523e+003, 1.255082e-002
2.198452e+003, 1.211931e-002
2.200380e+003, 1.253112e-002
2.202309e+003, 1.340731e-002
2.204237e+003, 1.328581e-002
2.206166e+003, 1.287534e-002
2.208094e+003, 1.266260e-002
2.210023e+003, 1.249723e-002
2.211951e+003, 1.248170e-002
2.213880e+003, 1.287776e-002
2.215808e+003, 1.281137e-002
2.217737e+003, 1.228784e-002
2.219665e+003, 1.210584e-002
2.221594e+003, 1.173985e-002
2.223522e+003, 1.156019e-002
2.225450e+003, 1.180524e-002
2.227379e+003, 1.224821e-002
2.229307e+003, 1.277048e-002
2.231236e+003, 1.290634e-002
2.233164e+003, 1.268941e-002
2.235093e+003, 1.244499e-002
2.237021e+003, 1.229282e-002
2.238950e+003, 1.283143e-002
2.240878e+003, 1.281607e-002
2.242807e+003, 1.212926e-002
2.244735e+003, 1.195588e-002
2.246664e+003, 1.280119e-002
2.248592e+003, 1.297298e-002
2.250521e+003, 1.237320e-002
2.252449e+003, 1.243724e-002
2.254377e+003, 1.296586e-002
2.256306e+003, 1.332626e-002
2.258234e+003, 1.344612e-002
2.260163e+003, 1.321886e-002
2.262091e+003, 1.320841e-002
2.264020e+003, 1.305963e-002
2.265948e+003, 1.238966e-002
2.267877e+003, 1.263187e-002
2.269805e+003, 1.317174e-002
2.271734e+003, 1.270078e-002
2.273662e+003, 1.287137e-002
2.275591e+003, 1.326293e-002
2.277519e+003, 1.355253e-002
2.279448e+003, 1.374090e-002
2.281376e+003, 1.403171e-002
2.283304e+003, 1.411578e-002
2.285233e+003, 1.376564e-002
2.287161e+003, 1.389529e-002
2.289090e+003, 1.414739e-002
2.291018e+003, 1.370574e-002
2.292947e+003, 1.384870e-002
2.294875e+003, 1.392681e-002
2.296804e+003, 1.359476e-002
2.298732e+003, 1.346095e-002
2.300661e+003, 1.362207e-002
2.302589e+003, 1.371277e-002
2.304518e+003, 1.377705e-002
2.306446e+003, 1.378192e-002
2.308375e+003, 1.355044e-002
2.310303e+003, 1.348868e-002
2.312231e+003, 1.356718e-002
2.314160e+003, 1.343939e-002
2.316088e+003, 1.326597e-002
2.318017e+003, 1.354485e-002
2.319945e+003, 1.385120e-002
2.321874e+003, 1.389236e-002
2.323802e+003, 1.380874e-002
2.325731e+003, 1.328122e-002
2.327659e+003, 1.289916e-002
2.329588e+003, 1.286075e-002
2.331516e+003, 1.289800e-002
2.333445e+003, 1.277242e-002
2.335373e+003, 1.281134e-002
2.337302e+003, 1.274177e-002
2.339230e+003, 1.282002e-002
2.341158e+003, 1.288079e-002
2.343087e+003, 1.332275e-002
2.345015e+003, 1.355393e-002
2.346944e+003, 1.361323e-002
2.348872e+003, 1.368073e-002
2.350801e+003, 1.347576e-002
2.352729e+003, 1.314634e-002
2.354658e+003, 1.303479e-002
2.356586e+003, 1.311206e-002
2.358515e+003, 1.296354e-002
2.360443e+003, 1.294048e-002
2.362372e+003, 1.300725e-002
2.364300e+003, 1.288784e-002
2.366229e+003, 1.290177e-002
2.368157e+003, 1.302901e-002
2.370085e+003, 1.335398e-002
2.372014e+003, 1.366323e-002
2.373942e+003, 1.373579e-002
2.375871e+003, 1.352288e-002
2.377799e+003, 1.332473e-002
2.379728e+003, 1.319082e-002
2.381656e+003, 1.338760e-002
2.383585e+003, 1.386794e-002
2.385513e+003, 1.372505e-002
2.387442e+003, 1.366536e-002
2.389370e+003, 1.349945e-002
2.391299e+003, 1.338738e-002
2.393227e+003, 1.346043e-002
2.395156e+003, 1.346653e-002
2.397084e+003, 1.385432e-002
2.399012e+003, 1.377694e-002
2.400941e+003, 1.381188e-002
2.402869e+003, 1.406479e-002
2.404798e+003, 1.406590e-002
2.406726e+003, 1.403879e-002
2.408655e+003, 1.435803e-002
2.410583e+003, 1.431786e-002
2.412512e+003, 1.387107e-002
2.414440e+003, 1.353258e-002
2.416369e+003, 1.382396e-002
2.418297e+003, 1.413576e-002
2.420226e+003, 1.441765e-002
2.422154e+003, 1.462077e-002
2.424083e+003, 1.402452e-002
2.426011e+003, 1.387359e-002
2.427939e+003, 1.390238e-002
2.429868e+003, 1.396906e-002
2.431796e+003, 1.427462e-002
2.433725e+003, 1.447804e-002
2.435653e+003, 1.465774e-002
2.437582e+003, 1.465648e-002
2.439510e+003, 1.435710e-002
2.441439e+003, 1.425267e-002
2.443367e+003, 1.423915e-002
2.445296e+003, 1.435608e-002
2.447224e+003, 1.418627e-002
2.449153e+003, 1.413256e-002
2.451081e+003, 1.414599e-002
2.453010e+003, 1.449347e-002
2.454938e+003, 1.454321e-002
2.456866e+003, 1.444497e-002
2.458795e+003, 1.479015e-002
2.460723e+003, 1.479207e-002
2.462652e+003, 1.442704e-002
2.464580e+003, 1.415952e-002
2.466509e+003, 1.412886e-002
2.468437e+003, 1.405447e-002
2.470366e+003, 1.439375e-002
2.472294e+003, 1.435318e-002
2.474223e+003, 1.390427e-002
2.476151e+003, 1.391843e-002
2.478080e+003, 1.403050e-002
2.480008e+003, 1.424991e-002
2.481937e+003, 1.461521e-002
2.483865e+003, 1.436864e-002
2.485793e+003, 1.431244e-002
2.487722e+003, 1.432622e-002
2.489650e+003, 1.486509e-002
2.491579e+003, 1.512263e-002
2.493507e+003, 1.431994e-002
2.495436e+003, 1.375975e-002
2.497364e+003, 1.372069e-002
2.499293e+003, 1.367535e-002
2.501221e+003, 1.418831e-002
2.503150e+003, 1.448281e-002
2.505078e+003, 1.405808e-002
2.507007e+003, 1.362679e-002
2.508935e+003, 1.412107e-002
2.510864e+003, 1.448722e-002
2.512792e+003, 1.407969e-002
2.514720e+003, 1.387081e-002
2.516649e+003, 1.397503e-002
2.518577e+003, 1.424872e-002
2.520506e+003, 1.472686e-002
2.522434e+003, 1.496365e-002
2.524363e+003, 1.517293e-002
2.526291e+003, 1.513886e-002
2.528220e+003, 1.461283e-002
2.530148e+003, 1.416250e-002
2.532077e+003, 1.416352e-002
2.534005e+003, 1.442090e-002
2.535934e+003, 1.454213e-002
2.537862e+003, 1.429265e-002
2.539791e+003, 1.397151e-002
2.541719e+003, 1.435951e-002
2.543647e+003, 1.501217e-002
2.545576e+003, 1.492318e-002
2.547504e+003, 1.444547e-002
2.549433e+003, 1.439830e-002
2.551361e+003, 1.522070e-002
2.553290e+003, 1.562897e-002
2.555218e+003, 1.535676e-002
2.557147e+003, 1.512551e-002
2.559075e+003, 1.494929e-002
2.561004e+003, 1.517405e-002
2.562932e+003, 1.534862e-002
2.564861e+003, 1.507328e-002
2.566789e+003, 1.519289e-002
2.568718e+003, 1.526384e-002
2.570646e+003, 1.529628e-002
2.572574e+003, 1.531277e-002
2.574503e+003, 1.540875e-002
2.576431e+003, 1.486995e-002
2.578360e+003, 1.482680e-002
2.580288e+003, 1.501776e-002
2.582217e+003, 1.488166e-002
2.584145e+003, 1.498085e-002
2.586074e+003, 1.498065e-002
2.588002e+003, 1.470187e-002
2.589931e+003, 1.474882e-002
2.591859e+003, 1.502252e-002
2.593788e+003, 1.489888e-002
2.595716e+003, 1.526664e-002
2.597645e+003, 1.505998e-002
2.599573e+003, 1.469351e-002
2.601501e+003, 1.470048e-002
2.603430e+003, 1.483714e-002
2.605358e+003, 1.500558e-002
2.607287e+003, 1.540738e-002
2.609215e+003, 1.514187e-002
2.611144e+003, 1.483333e-002
2.613072e+003, 1.500044e-002
2.615001e+003, 1.507508e-002
2.616929e+003, 1.543368e-002
2.618858e+003, 1.564254e-002
2.620786e+003, 1.554234e-002
2.622715e+003, 1.546384e-002
2.624643e+003, 1.541438e-002
2.626572e+003, 1.544079e-002
2.628500e+003, 1.540578e-002
2.630428e+003, 1.529881e-002
2.632357e+003, 1.533035e-002
2.634285e+003, 1.510205e-002
2.636214e+003, 1.486053e-002
2.638142e+003, 1.523471e-002
2.640071e+003, 1.561414e-002
2.641999e+003, 1.558713e-002
2.643928e+003, 1.554292e-002
2.645856e+003, 1.518411e-002
2.647785e+003, 1.517624e-002
2.649713e+003, 1.534521e-002
2.651642e+003, 1.561498e-002
2.653570e+003, 1.545782e-002
2.655499e+003, 1.534100e-002
2.657427e+003, 1.565066e-002
2.659355e+003, 1.541525e-002
2.661284e+003, 1.490458e-002
2.663212e+003, 1.492378e-002
2.665141e+003, 1.496097e-002
2.667069e+003, 1.487270e-002
2.668998e+003, 1.480275e-002
2.670926e+003, 1.460981e-002
2.672855e+003, 1.489618e-002
2.674783e+003, 1.522781e-002
2.676712e+003, 1.501802e-002
2.678640e+003, 1.501455e-002
2.680569e+003, 1.510075e-002
2.682497e+003, 1.495874e-002
2.684426e+003, 1.512555e-002
2.686354e+003, 1.534365e-002
2.688282e+003, 1.536278e-002
2.690211e+003, 1.512229e-002
2.692139e+003, 1.479269e-002
2.694068e+003, 1.507778e-002
2.695996e+003, 1.540116e-002
2.697925e+003, 1.536725e-002
2.699853e+003, 1.541096e-002
2.701782e+003, 1.534324e-002
2.703710e+003, 1.521860e-002
2.705639e+003, 1.533408e-002
2.707567e+003, 1.551890e-002
2.709496e+003, 1.577213e-002
2.711424e+003, 1.592195e-002
2.713353e+003, 1.567286e-002
2.715281e+003, 1.549492e-002
2.717209e+003, 1.572096e-002
2.719138e+003, 1.563232e-002
2.721066e+003, 1.543339e-002
2.722995e+003, 1.550859e-002
2.724923e+003, 1.600561e-002
2.726852e+003, 1.595943e-002
2.728780e+003, 1.559128e-002
2.730709e+003, 1.571865e-002
2.732637e+003, 1.594309e-002
2.734566e+003, 1.592027e-002
2.736494e+003, 1.593003e-002
2.738423e+003, 1.590098e-002
2.740351e+003, 1.568251e-002
2.742280e+003, 1.558224e-002
2.744208e+003, 1.583984e-002
2.746136e+003, 1.601401e-002
2.748065e+003, 1.591978e-002
2.749993e+003, 1.580629e-002
2.751922e+003, 1.599590e-002
2.753850e+003, 1.614251e-002
2.755779e+003, 1.587425e-002
2.757707e+003, 1.586137e-002
2.759636e+003, 1.614787e-002
2.761564e+003, 1.617186e-002
2.763493e+003, 1.634363e-002
2.765421e+003, 1.611170e-002
2.767350e+003, 1.592250e-002
2.769278e+003, 1.593043e-002
2.771207e+003, 1.607887e-002
2.773135e+003, 1.604164e-002
2.775063e+003, 1.628139e-002
2.776992e+003, 1.638541e-002
2.778920e+003, 1.608052e-002
2.780849e+003, 1.580458e-002
2.782777e+003, 1.593101e-002
2.784706e+003, 1.631065e-002
2.786634e+003, 1.656043e-002
2.788563e+003, 1.644264e-002
2.790491e+003, 1.637818e-002
2.792420e+003, 1.632592e-002
2.794348e+003, 1.637427e-002
2.796277e+003, 1.621889e-002
2.798205e+003, 1.623608e-002
2.800134e+003, 1.634131e-002
2.802062e+003, 1.642577e-002
2.803990e+003, 1.646307e-002
2.805919e+003, 1.656816e-002
2.807847e+003, 1.676507e-002
2.809776e+003, 1.648420e-002
2.811704e+003, 1.640241e-002
2.813633e+003, 1.679602e-002
2.815561e+003, 1.680488e-002
2.817490e+003, 1.670897e-002
2.819418e+003, 1.655848e-002
2.821347e+003, 1.630840e-002
2.823275e+003, 1.667519e-002
2.825204e+003, 1.678309e-002
2.827132e+003, 1.652763e-002
2.829061e+003, 1.654774e-002
2.830989e+003, 1.627982e-002
2.832917e+003, 1.628540e-002
2.834846e+003, 1.654588e-002
2.836774e+003, 1.678465e-002
2.838703e+003, 1.689113e-002
2.840631e+003, 1.669928e-002
2.842560e+003, 1.673716e-002
2.844488e+003, 1.697887e-002
2.846417e+003, 1.703924e-002
2.848345e+003, 1.725098e-002
2.850274e+003, 1.745699e-002
2.852202e+003, 1.723256e-002
2.854131e+003, 1.690882e-002
2.856059e+003, 1.657206e-002
2.857988e+003, 1.644640e-002
2.859916e+003, 1.638011e-002
2.861844e+003, 1.611168e-002
2.863773e+003, 1.574674e-002
2.865701e+003, 1.579138e-002
2.867630e+003, 1.567673e-002
2.869558e+003, 1.543252e-002
2.871487e+003, 1.531710e-002
2.873415e+003, 1.513810e-002
2.875344e+003, 1.510014e-002
2.877272e+003, 1.549698e-002
2.879201e+003, 1.592616e-002
2.881129e+003, 1.596399e-002
2.883058e+003, 1.619346e-002
2.884986e+003, 1.615549e-002
2.886915e+003, 1.588551e-002
2.888843e+003, 1.606112e-002
2.890771e+003, 1.606758e-002
2.892700e+003, 1.594142e-002
2.894628e+003, 1.586346e-002
2.896557e+003, 1.593303e-002
2.898485e+003, 1.632166e-002
2.900414e+003, 1.637876e-002
2.902342e+003, 1.637367e-002
2.904271e+003, 1.641019e-002
2.906199e+003, 1.630686e-002
2.908128e+003, 1.637449e-002
2.910056e+003, 1.661668e-002
2.911985e+003, 1.677053e-002
2.913913e+003, 1.692664e-002
2.915842e+003, 1.717775e-002
2.917770e+003, 1.748001e-002
2.919698e+003, 1.732973e-002
2.921627e+003, 1.680232e-002
2.923555e+003, 1.688733e-002
2.925484e+003, 1.671322e-002
2.927412e+003, 1.606916e-002
2.929341e+003, 1.606254e-002
2.931269e+003, 1.617482e-002
2.933198e+003, 1.611922e-002
2.935126e+003, 1.593995e-002
2.937055e+003, 1.595534e-002
2.938983e+003, 1.605230e-002
2.940912e+003, 1.570646e-002
2.942840e+003, 1.530864e-002
2.944769e+003, 1.531838e-002
2.946697e+003, 1.483503e-002
2.948625e+003, 1.419771e-002
2.950554e+003, 1.362221e-002
2.952482e+003, 1.324181e-002
2.954411e+003, 1.289978e-002
2.956339e+003, 1.260151e-002
2.958268e+003, 1.293157e-002
2.960196e+003, 1.337551e-002
2.962125e+003, 1.342627e-002
2.964053e+003, 1.362835e-002
2.965982e+003, 1.394694e-002
2.967910e+003, 1.457757e-002
2.969839e+003, 1.519556e-002
2.971767e+003, 1.538956e-002
2.973696e+003, 1.591945e-002
2.975624e+003, 1.618613e-002
2.977552e+003, 1.618763e-002
2.979481e+003, 1.655615e-002
2.981409e+003, 1.680893e-002
2.983338e+003, 1.680678e-002
2.985266e+003, 1.718385e-002
2.987195e+003, 1.736517e-002
2.989123e+003, 1.741311e-002
2.991052e+003, 1.756427e-002
2.992980e+003, 1.749438e-002
2.994909e+003, 1.762454e-002
2.996837e+003, 1.807189e-002
2.998766e+003, 1.844838e-002
3.000694e+003, 1.842364e-002
3.002623e+003, 1.802728e-002
3.004551e+003, 1.832314e-002
3.006479e+003, 1.921927e-002
3.008408e+003, 1.943929e-002
3.010336e+003, 1.883444e-002
3.012265e+003, 1.815996e-002
3.014193e+003, 1.805513e-002
3.016122e+003, 1.802018e-002
3.018050e+003, 1.831216e-002
3.019979e+003, 1.858893e-002
3.021907e+003, 1.835516e-002
3.023836e+003, 1.798328e-002
3.025764e+003, 1.801914e-002
3.027693e+003, 1.829905e-002
3.029621e+003, 1.906896e-002
3.031550e+003, 1.929788e-002
3.033478e+003, 1.881354e-002
3.035406e+003, 1.874490e-002
3.037335e+003, 1.881888e-002
3.039263e+003, 1.858957e-002
3.041192e+003, 1.887385e-002
3.043120e+003, 1.879049e-002
3.045049e+003, 1.885132e-002
3.046977e+003, 1.912227e-002
3.048906e+003, 1.915836e-002
3.050834e+003, 1.942680e-002
3.052763e+003, 1.964675e-002
3.054691e+003, 1.953024e-002
3.056620e+003, 1.948882e-002
3.058548e+003, 1.945679e-002
3.060477e+003, 1.978017e-002
3.062405e+003, 1.983126e-002
3.064333e+003, 1.976790e-002
3.066262e+003, 1.956504e-002
3.068190e+003, 1.943808e-002
3.070119e+003, 1.966357e-002
3.072047e+003, 2.019129e-002
3.073976e+003, 2.037532e-002
3.075904e+003, 2.020370e-002
3.077833e+003, 2.027332e-002
3.079761e+003, 2.037284e-002
3.081690e+003, 2.018925e-002
3.083618e+003, 1.973084e-002
3.085547e+003, 1.981115e-002
3.087475e+003, 2.059236e-002
3.089404e+003, 2.104063e-002
3.091332e+003, 2.105542e-002
3.093260e+003, 2.088783e-002
3.095189e+003, 2.098242e-002
3.097117e+003, 2.088761e-002
3.099046e+003, 2.063439e-002
3.100974e+003, 2.072653e-002
3.102903e+003, 2.121204e-002
3.104831e+003, 2.161583e-002
3.106760e+003, 2.138911e-002
3.108688e+003, 2.142195e-002
3.110617e+003, 2.199622e-002
3.112545e+003, 2.218461e-002
3.114474e+003, 2.204866e-002
3.116402e+003, 2.195233e-002
3.118331e+003, 2.177722e-002
3.120259e+003, 2.158383e-002
3.122188e+003, 2.106552e-002
3.124116e+003, 2.123361e-002
3.126044e+003, 2.183056e-002
3.127973e+003, 2.186847e-002
3.129901e+003, 2.161407e-002
3.131830e+003, 2.129521e-002
3.133758e+003, 2.112692e-002
3.135687e+003, 2.137505e-002
3.137615e+003, 2.209542e-002
3.139544e+003, 2.206607e-002
3.141472e+003, 2.173353e-002
3.143401e+003, 2.150233e-002
3.145329e+003, 2.093293e-002
3.147258e+003, 2.049347e-002
3.149186e+003, 2.041356e-002
3.151115e+003, 2.034276e-002
3.153043e+003, 2.068832e-002
3.154971e+003, 2.105846e-002
3.156900e+003, 2.089172e-002
3.158828e+003, 2.086176e-002
3.160757e+003, 2.118673e-002
3.162685e+003, 2.147649e-002
3.164614e+003, 2.124453e-002
3.166542e+003, 2.107294e-002
3.168471e+003, 2.114856e-002
3.170399e+003, 2.067561e-002
3.172328e+003, 2.026027e-002
3.174256e+003, 2.012872e-002
3.176185e+003, 2.016615e-002
3.178113e+003, 2.095406e-002
3.180042e+003, 2.154116e-002
3.181970e+003, 2.124680e-002
3.183898e+003, 2.085243e-002
3.185827e+003, 2.094694e-002
3.187755e+003, 2.108487e-002
3.189684e+003, 2.033026e-002
3.191612e+003, 2.036444e-002
3.193541e+003, 2.056553e-002
3.195469e+003, 2.097207e-002
3.197398e+003, 2.166540e-002
3.199326e+003, 2.129940e-002
3.201255e+003, 2.037107e-002
3.203183e+003, 2.077834e-002
3.205112e+003, 2.108139e-002
3.207040e+003, 2.043139e-002
3.208969e+003, 2.009392e-002
3.210897e+003, 2.011657e-002
3.212825e+003, 2.054128e-002
3.214754e+003, 2.072138e-002
3.216682e+003, 2.020040e-002
3.218611e+003, 1.982229e-002
3.220539e+003, 1.995907e-002
3.222468e+003, 2.009548e-002
3.224396e+003, 2.059628e-002
3.226325e+003, 2.113029e-002
3.228253e+003, 2.155660e-002
3.230182e+003, 2.123161e-002
3.232110e+003, 2.046223e-002
3.234039e+003, 2.029808e-002
3.235967e+003, 2.088282e-002
3.237896e+003, 2.121827e-002
3.239824e+003, 2.097897e-002
3.241752e+003, 2.072066e-002
3.243681e+003, 2.018066e-002
3.245609e+003, 2.014084e-002
3.247538e+003, 2.022147e-002
3.249466e+003, 2.046756e-002
3.251395e+003, 2.058705e-002
3.253323e+003, 2.032124e-002
3.255252e+003, 2.009050e-002
3.257180e+003, 2.063704e-002
3.259109e+003, 2.087357e-002
3.261037e+003, 2.084689e-002
3.262966e+003, 2.111598e-002
3.264894e+003, 2.165913e-002
3.266823e+003, 2.147443e-002
3.268751e+003, 2.064683e-002
3.270679e+003, 2.031862e-002
3.272608e+003, 2.060034e-002
3.274536e+003, 2.046431e-002
3.276465e+003, 1.994693e-002
3.278393e+003, 1.984708e-002
3.280322e+003, 2.010974e-002
3.282250e+003, 2.027621e-002
3.284179e+003, 2.067869e-002
3.286107e+003, 2.067029e-002
3.288036e+003, 2.063213e-002
3.289964e+003, 2.080217e-002
3.291893e+003, 2.086251e-002
3.293821e+003, 2.073553e-002
3.295750e+003, 2.017198e-002
3.297678e+003, 1.990633e-002
3.299606e+003, 1.980833e-002
3.301535e+003, 2.032877e-002
3.303463e+003, 2.025783e-002
3.305392e+003, 2.008616e-002
3.307320e+003, 2.034917e-002
3.309249e+003, 2.006257e-002
3.311177e+003, 2.058534e-002
3.313106e+003, 2.038621e-002
3.315034e+003, 2.017573e-002
3.316963e+003, 1.988355e-002
3.318891e+003, 1.996558e-002
3.320820e+003, 2.076394e-002
3.322748e+003, 2.088200e-002
3.324677e+003, 2.030635e-002
3.326605e+003, 1.980547e-002
3.328533e+003, 1.970693e-002
3.330462e+003, 1.983268e-002
3.332390e+003, 1.937510e-002
3.334319e+003, 1.941778e-002
3.336247e+003, 1.995556e-002
3.338176e+003, 2.028404e-002
3.340104e+003, 2.006907e-002
3.342033e+003, 1.980841e-002
3.343961e+003, 1.935850e-002
3.345890e+003, 1.975114e-002
3.347818e+003, 2.042194e-002
3.349747e+003, 2.006185e-002
3.351675e+003, 1.960518e-002
3.353604e+003, 1.937558e-002
3.355532e+003, 2.002154e-002
3.357460e+003, 2.056989e-002
3.359389e+003, 2.015424e-002
3.361317e+003, 1.981737e-002
3.363246e+003, 1.994397e-002
3.365174e+003, 2.006810e-002
3.367103e+003, 2.046558e-002
3.369031e+003, 2.047922e-002
3.370960e+003, 2.048517e-002
3.372888e+003, 2.026866e-002
3.374817e+003, 1.989979e-002
3.376745e+003, 1.960713e-002
3.378674e+003, 1.903823e-002
3.380602e+003, 1.914374e-002
3.382531e+003, 1.909460e-002
3.384459e+003, 1.931135e-002
3.386387e+003, 2.014001e-002
3.388316e+003, 1.968046e-002
3.390244e+003, 1.884046e-002
3.392173e+003, 1.955297e-002
3.394101e+003, 1.971031e-002
3.396030e+003, 2.006845e-002
3.397958e+003, 2.066831e-002
3.399887e+003, 2.041845e-002
3.401815e+003, 1.997239e-002
3.403744e+003, 1.959406e-002
3.405672e+003, 2.014133e-002
3.407601e+003, 2.008681e-002
3.409529e+003, 1.973006e-002
3.411458e+003, 1.992463e-002
3.413386e+003, 2.001281e-002
3.415314e+003, 2.045947e-002
3.417243e+003, 2.082178e-002
3.419171e+003, 2.034693e-002
3.421100e+003, 1.979231e-002
3.423028e+003, 2.059043e-002
3.424957e+003, 2.043589e-002
3.426885e+003, 1.938076e-002
3.428814e+003, 1.933814e-002
3.430742e+003, 1.913415e-002
3.432671e+003, 1.941198e-002
3.434599e+003, 2.057176e-002
3.436528e+003, 2.079876e-002
3.438456e+003, 2.029191e-002
3.440385e+003, 1.978455e-002
3.442313e+003, 2.036970e-002
3.444241e+003, 2.056021e-002
3.446170e+003, 2.015225e-002
3.448098e+003, 1.942352e-002
3.450027e+003, 1.930272e-002
3.451955e+003, 2.001892e-002
3.453884e+003, 2.014493e-002
3.455812e+003, 1.992769e-002
3.457741e+003, 2.040758e-002
3.459669e+003, 2.073122e-002
3.461598e+003, 2.105005e-002
3.463526e+003, 2.053270e-002
3.465455e+003, 2.043832e-002
3.467383e+003, 2.081123e-002
3.469312e+003, 2.023526e-002
3.471240e+003, 2.025665e-002
3.473168e+003, 2.038198e-002
3.475097e+003, 1.999782e-002
3.477025e+003, 1.943814e-002
3.478954e+003, 1.998696e-002
3.480882e+003, 2.049108e-002
3.482811e+003, 2.051167e-002
3.484739e+003, 2.060320e-002
3.486668e+003, 2.063979e-002
3.488596e+003, 2.043186e-002
3.490525e+003, 2.043636e-002
3.492453e+003, 2.006181e-002
3.494382e+003, 2.017755e-002
3.496310e+003, 2.059822e-002
3.498239e+003, 2.079488e-002
3.500167e+003, 2.075285e-002
3.502095e+003, 2.064407e-002
3.504024e+003, 2.010369e-002
3.505952e+003, 1.984569e-002
3.507881e+003, 2.022994e-002
3.509809e+003, 2.084079e-002
3.511738e+003, 2.089294e-002
3.513666e+003, 2.077895e-002
3.515595e+003, 2.082732e-002
3.517523e+003, 2.055686e-002
3.519452e+003, 2.010689e-002
3.521380e+003, 1.977392e-002
3.523309e+003, 1.983667e-002
3.525237e+003, 1.990764e-002
3.527166e+003, 1.956538e-002
3.529094e+003, 1.955488e-002
3.531022e+003, 1.995418e-002
3.532951e+003, 2.077457e-002
3.534879e+003, 2.135006e-002
3.536808e+003, 2.044224e-002
3.538736e+003, 1.958824e-002
3.540665e+003, 2.018601e-002
3.542593e+003, 1.968199e-002
3.544522e+003, 1.926750e-002
3.546450e+003, 1.993089e-002
3.548379e+003, 2.070751e-002
3.550307e+003, 2.014277e-002
3.552236e+003, 1.889962e-002
3.554164e+003, 1.942974e-002
3.556093e+003, 1.972382e-002
3.558021e+003, 1.982120e-002
3.559949e+003, 2.007116e-002
3.561878e+003, 2.018833e-002
3.563806e+003, 2.040433e-002
3.565735e+003, 2.095981e-002
3.567663e+003, 2.073811e-002
3.569592e+003, 2.023720e-002
3.571520e+003, 2.047631e-002
3.573449e+003, 2.086546e-002
3.575377e+003, 2.079123e-002
3.577306e+003, 2.090768e-002
3.579234e+003, 2.055779e-002
3.581163e+003, 2.000733e-002
3.583091e+003, 2.057453e-002
3.585020e+003, 2.116070e-002
3.586948e+003, 2.099728e-002
3.588876e+003, 2.053714e-002
3.590805e+003, 2.043088e-002
3.592733e+003, 2.053774e-002
3.594662e+003, 2.078411e-002
3.596590e+003, 2.117899e-002
3.598519e+003, 2.045979e-002
3.600447e+003, 1.956111e-002
3.602376e+003, 1.932239e-002
3.604304e+003, 2.053781e-002
3.606233e+003, 2.096678e-002
3.608161e+003, 2.077130e-002
3.610090e+003, 2.034174e-002
3.612018e+003, 2.043663e-002
3.613947e+003, 2.014307e-002
3.615875e+003, 2.109740e-002
3.617803e+003, 2.135676e-002
3.619732e+003, 2.038817e-002
3.621660e+003, 2.034968e-002
3.623589e+003, 2.105297e-002
3.625517e+003, 2.156475e-002
3.627446e+003, 2.097123e-002
3.629374e+003, 2.036208e-002
3.631303e+003, 2.042896e-002
3.633231e+003, 2.083133e-002
3.635160e+003, 2.020933e-002
3.637088e+003, 1.980680e-002
3.639017e+003, 2.040653e-002
3.640945e+003, 2.022720e-002
3.642874e+003, 1.977939e-002
3.644802e+003, 2.006540e-002
3.646730e+003, 2.066669e-002
3.648659e+003, 2.111078e-002
3.650587e+003, 2.102853e-002
3.652516e+003, 2.061157e-002
3.654444e+003, 2.134318e-002
3.656373e+003, 2.110299e-002
3.658301e+003, 2.079576e-002
3.660230e+003, 2.011188e-002
3.662158e+003, 2.021109e-002
3.664087e+003, 2.055966e-002
3.666015e+003, 2.083653e-002
3.667944e+003, 2.172186e-002
3.669872e+003, 2.098338e-002
3.671801e+003, 2.066123e-002
3.673729e+003, 2.090455e-002
3.675657e+003, 2.078485e-002
3.677586e+003, 2.167719e-002
3.679514e+003, 2.218308e-002
3.681443e+003, 2.269448e-002
3.683371e+003, 2.288179e-002
3.685300e+003, 2.230154e-002
3.687228e+003, 2.175508e-002
3.689157e+003, 2.079642e-002
3.691085e+003, 2.074125e-002
3.693014e+003, 2.084357e-002
3.694942e+003, 2.008913e-002
3.696871e+003, 1.997025e-002
3.698799e+003, 2.105863e-002
3.700728e+003, 2.113844e-002
3.702656e+003, 2.076986e-002
3.704584e+003, 2.075071e-002
3.706513e+003, 2.070267e-002
3.708441e+003, 2.131696e-002
3.710370e+003, 2.151617e-002
3.712298e+003, 2.094756e-002
3.714227e+003, 2.123325e-002
3.716155e+003, 2.174178e-002
3.718084e+003, 2.167740e-002
3.720012e+003, 2.063886e-002
3.721941e+003, 2.111054e-002
3.723869e+003, 2.234528e-002
3.725798e+003, 2.184474e-002
3.727726e+003, 2.126449e-002
3.729655e+003, 2.117658e-002
3.731583e+003, 2.128399e-002
3.733511e+003, 2.153177e-002
3.735440e+003, 2.227140e-002
3.737368e+003, 2.208204e-002
3.739297e+003, 2.189475e-002
3.741225e+003, 2.230828e-002
3.743154e+003, 2.181816e-002
3.745082e+003, 2.152092e-002
3.747011e+003, 2.258145e-002
3.748939e+003, 2.292096e-002
3.750868e+003, 2.157885e-002
3.752796e+003, 2.129701e-002
3.754725e+003, 2.155603e-002
3.756653e+003, 2.124198e-002
3.758582e+003, 2.101772e-002
3.760510e+003, 2.161602e-002
3.762438e+003, 2.227503e-002
3.764367e+003, 2.299277e-002
3.766295e+003, 2.275904e-002
3.768224e+003, 2.174551e-002
3.770152e+003, 2.127755e-002
3.772081e+003, 2.065293e-002
3.774009e+003, 2.044861e-002
3.775938e+003, 2.120463e-002
3.777866e+003, 2.188119e-002
3.779795e+003, 2.111693e-002
3.781723e+003, 2.133004e-002
3.783652e+003, 2.135273e-002
3.785580e+003, 2.170775e-002
3.787509e+003, 2.240195e-002
3.789437e+003, 2.217739e-002
3.791365e+003, 2.207536e-002
3.793294e+003, 2.246573e-002
3.795222e+003, 2.270726e-002
3.797151e+003, 2.219895e-002
3.799079e+003, 2.229328e-002
3.801008e+003, 2.259543e-002
3.802936e+003, 2.261098e-002
3.804865e+003, 2.257081e-002
3.806793e+003, 2.242792e-002
3.808722e+003, 2.231200e-002
3.810650e+003, 2.157109e-002
3.812579e+003, 2.109702e-002
3.814507e+003, 2.204564e-002
3.816436e+003, 2.312973e-002
3.818364e+003, 2.278787e-002
3.820292e+003, 2.194182e-002
3.822221e+003, 2.223667e-002
3.824149e+003, 2.212936e-002
3.826078e+003, 2.165791e-002
3.828006e+003, 2.187432e-002
3.829935e+003, 2.222071e-002
3.831863e+003, 2.251269e-002
3.833792e+003, 2.309361e-002
3.835720e+003, 2.329842e-002
3.837649e+003, 2.268086e-002
3.839577e+003, 2.195526e-002
3.841506e+003, 2.184867e-002
3.843434e+003, 2.187486e-002
3.845363e+003, 2.178231e-002
3.847291e+003, 2.181286e-002
3.849219e+003, 2.199812e-002
3.851148e+003, 2.275934e-002
3.853076e+003, 2.269620e-002
3.855005e+003, 2.273086e-002
3.856933e+003, 2.322848e-002
3.858862e+003, 2.348086e-002
3.860790e+003, 2.302162e-002
3.862719e+003, 2.357442e-002
3.864647e+003, 2.289429e-002
3.866576e+003, 2.154180e-002
3.868504e+003, 2.138221e-002
3.870433e+003, 2.248258e-002
3.872361e+003, 2.412416e-002
3.874290e+003, 2.315599e-002
3.876218e+003, 2.212404e-002
3.878146e+003, 2.273837e-002
3.880075e+003, 2.324154e-002
3.882003e+003, 2.289097e-002
3.883932e+003, 2.166027e-002
3.885860e+003, 2.183810e-002
3.887789e+003, 2.187908e-002
3.889717e+003, 2.198760e-002
3.891646e+003, 2.294835e-002
3.893574e+003, 2.438707e-002
3.895503e+003, 2.393905e-002
3.897431e+003, 2.233933e-002
3.899360e+003, 2.207967e-002
3.901288e+003, 2.290681e-002
3.903217e+003, 2.346552e-002
3.905145e+003, 2.323127e-002
3.907073e+003, 2.256278e-002
3.909002e+003, 2.306055e-002
3.910930e+003, 2.370925e-002
3.912859e+003, 2.316294e-002
3.914787e+003, 2.238940e-002
3.916716e+003, 2.206356e-002
3.918644e+003, 2.251815e-002
3.920573e+003, 2.242261e-002
3.922501e+003, 2.213934e-002
3.924430e+003, 2.188744e-002
3.926358e+003, 2.131254e-002
3.928287e+003, 2.265270e-002
3.930215e+003, 2.305937e-002
3.932144e+003, 2.181934e-002
3.934072e+003, 2.145024e-002
3.936000e+003, 2.228054e-002
3.937929e+003, 2.256075e-002
3.939857e+003, 2.273861e-002
3.941786e+003, 2.244085e-002
3.943714e+003, 2.315155e-002
3.945643e+003, 2.354270e-002
3.947571e+003, 2.268385e-002
3.949500e+003, 2.158074e-002
3.951428e+003, 2.210207e-002
3.953357e+003, 2.307432e-002
3.955285e+003, 2.321230e-002
3.957214e+003, 2.270777e-002
3.959142e+003, 2.180507e-002
3.961071e+003, 2.220386e-002
3.962999e+003, 2.268894e-002
3.964927e+003, 2.180194e-002
3.966856e+003, 2.169581e-002
3.968784e+003, 2.349974e-002
3.970713e+003, 2.452214e-002
3.972641e+003, 2.380228e-002
3.974570e+003, 2.443443e-002
3.976498e+003, 2.476971e-002
3.978427e+003, 2.351100e-002
3.980355e+003, 2.290859e-002
3.982284e+003, 2.270683e-002
3.984212e+003, 2.326967e-002
3.986141e+003, 2.385665e-002
3.988069e+003, 2.320688e-002
3.989998e+003, 2.295310e-002
3.991926e+003, 2.255893e-002
3.993854e+003, 2.281599e-002
3.995783e+003, 2.424272e-002
3.997711e+003, 2.420042e-002
3.999640e+003, 2.379193e-002
##END=



